,Time (sec),PT1 (psi),PT2 (psi),torque (mNm),V (V),I (A),Speed (RPM),Flow Rate (GPM),DP (psi),GV
311,100.12,35.0526,28.9583,77.9679,12.7673,1.4732,3612.8618,27.8783,6.0943,0
312,100.487,34.8808,28.7023,72.1277,12.8988,1.5262,3470.3479,27.4918,6.1785,0
313,100.859,35.0358,28.6115,79.1789,12.9948,1.5221,3545.5405,26.7666,6.4243,0
314,101.232,35.0358,28.704,72.6864,12.8846,1.5221,3347.3425,27.3311,6.3318,0
315,101.61,35.1136,28.628,72.4155,13.1997,1.5111,3566.8991,26.4628,6.4856,0
316,101.985,34.9729,28.9352,76.4841,12.8956,1.5004,3396.2265,25.9166,6.0377,0
317,102.367,35.0829,28.648,74.552,13.0444,1.5057,3491.7556,27.0585,6.4349,0
318,102.743,35.0824,28.8551,76.6634,12.8035,1.5098,3326.6801,27.8996,6.2273,0
319,103.12,35.1003,28.76,76.3245,12.8114,1.4931,3589.9482,27.2861,6.3403,0
320,103.494,35.0544,28.8517,71.4317,13.0342,1.5288,3331.4824,27.4194,6.2027,0
321,103.874,34.9264,28.8427,72.2487,12.8647,1.5106,3608.8056,26.411,6.0837,0
322,104.25,35.158,28.7906,74.4998,12.8279,1.5028,3489.3186,27.3649,6.3674,0
323,104.627,35.08,28.7634,78.6706,13.0532,1.5223,3394.561,26.7489,6.3166,0
324,105.009,34.9879,28.77,76.5634,13.035,1.5,3469.9462,28.4091,6.2179,0
325,105.382,35.027,28.628,74.0271,12.8949,1.5124,3549.8757,27.4081,6.399,0
326,105.758,34.9916,28.8958,71.1691,12.9752,1.5174,3405.479,26.103,6.0958,0
327,106.143,35.2548,28.6214,74.8749,12.9076,1.5169,3598.9921,27.3158,6.6334,0
328,106.519,34.8799,28.889,72.6813,13.1414,1.5083,3436.6884,25.9988,5.9909,0
329,106.905,35.2463,28.8988,75.6919,12.702,1.5274,3607.9375,27.8634,6.3475,0
330,107.278,34.9357,28.8449,73.0662,12.9496,1.499,3427.3962,26.8691,6.0908,0
331,107.662,34.9833,28.7023,73.7439,12.8137,1.5075,3521.2644,25.6831,6.281,0
332,108.048,35.1173,28.8262,76.2463,12.8744,1.5078,3424.6574,26.7617,6.2911,0
333,108.433,34.9125,28.7469,76.0614,12.9618,1.5275,3328.6486,26.6036,6.1656,0
334,108.823,34.9984,28.6752,73.8244,13.1098,1.5049,3334.4448,25.8734,6.3232,0
335,109.214,34.9913,28.5666,74.4925,12.8315,1.5151,3409.9951,26.4964,6.4247,0
336,109.601,35.0196,28.675,73.9524,12.7821,1.5317,3326.434,27.6083,6.3446,0
337,109.987,35.046,28.6983,77.0653,12.8571,1.5292,3536.3457,26.5659,6.3477,0
338,110.37,34.9045,28.5317,76.7677,12.8825,1.5347,3355.2043,27.1956,6.3728,0
339,110.757,35.0739,28.846,73.8686,13.1066,1.5501,3576.2536,25.8213,6.2279,0
340,111.143,35.2342,28.7535,76.5852,12.9213,1.5191,3482.1635,26.9127,6.4807,0
341,111.528,35.154,28.648,78.2014,12.7158,1.5305,3339.6416,25.912,6.506,0
342,111.922,35.121,28.6247,76.352,13.1058,1.5448,3509.1823,26.5697,6.4963,0
343,112.308,35.0409,28.6148,77.0918,13.0137,1.5221,3423.2246,27.3014,6.4261,0
344,112.695,35.0579,28.912,72.3363,12.9468,1.5244,3336.9174,27.3025,6.1459,0
345,113.085,34.9324,28.8381,78.071,12.8925,1.5266,3409.2202,27.9799,6.0943,0
346,113.471,35.051,28.5521,72.3627,13.155,1.5238,3594.1057,27.6816,6.4989,0
347,113.852,35.0579,28.7736,71.2936,12.9618,1.5146,3363.6057,26.8573,6.2843,0
348,114.244,35.0976,28.8585,78.2306,12.9933,1.5398,3465.2702,26.1301,6.2391,0
349,114.636,35.1212,28.4938,73.2486,12.876,1.5239,3529.8271,27.5042,6.6274,0
350,115.02,35.1065,28.8393,79.7133,12.9456,1.509,3408.1872,26.7568,6.2672,0
351,115.412,35.1132,28.6313,73.7101,12.8279,1.5149,3476.2456,27.2322,6.4819,0
352,115.801,34.9885,28.7838,77.0023,12.8736,1.5206,3484.5903,25.912,6.2047,0
353,116.195,35.0867,28.889,76.2724,13.1851,1.5378,3365.4924,27.6009,6.1977,0
354,116.586,35.1377,28.7403,74.1328,12.8569,1.5108,3422.1833,26.0676,6.3974,0
355,116.982,35.0335,28.755,75.4643,12.8024,1.5144,3326.5568,27.2719,6.2785,0
356,117.376,34.9843,28.9187,79.7601,13.0255,1.4948,3499.0864,26.6104,6.0656,0
357,117.768,35.0385,28.5802,73.4832,13.0791,1.5122,3617.945,25.5473,6.4583,0
358,118.162,35.0744,28.6039,72.0756,12.7629,1.5041,3497.0468,26.2108,6.4705,0
359,118.557,35.0284,28.6479,75.6919,12.9468,1.5139,3325.4506,27.3158,6.3805,0
360,118.952,35.2002,28.813,77.673,13.0137,1.5331,3504.8093,26.3405,6.3872,0
361,119.346,34.9837,28.7295,73.796,12.7909,1.5198,3399.3049,27.6281,6.2542,0
362,119.739,35.0937,28.8625,73.7893,12.7752,1.5091,3537.8747,26.8582,6.2312,0
363,120.131,35.0677,28.7535,77.2676,12.7951,1.52,3375.4641,27.6826,6.3142,0
364,120.526,34.9288,28.7087,76.2463,12.8849,1.5166,3530.9348,26.9784,6.2201,0
365,120.919,35.2071,28.9264,72.3363,12.7708,1.5055,3356.831,26.802,6.2807,0
366,121.318,35.1712,28.6974,73.7439,12.7579,1.5064,3414.9116,26.1704,6.4738,0
367,121.72,35.08,28.7553,72.7012,12.839,1.5032,3451.9792,27.6543,6.3247,0
368,122.114,35.1105,28.6842,72.1513,13.0814,1.5062,3365.3666,26.7912,6.4263,0
369,122.515,34.896,28.4783,73.5354,13.1307,1.514,3481.7595,27.3045,6.4177,0
370,122.91,35.021,28.906,71.1287,12.9545,1.5325,3339.0219,25.8891,6.115,0
371,123.315,35.1669,28.7295,75.3861,13.024,1.5242,3579.3828,26.7804,6.4374,0
372,123.71,35.0083,28.9054,73.9214,13.0569,1.5026,3523.8842,25.8799,6.1029,0
373,124.112,35.0935,28.7159,74.161,13.6099,1.4196,3642.1027,26.8257,6.3776,0
374,124.508,35.1305,28.9908,67.7485,13.406,1.4212,3592.0974,27.3393,6.1397,0
375,124.902,35.1532,28.8687,70.9808,13.5334,1.411,3563.6508,26.5571,6.2845,0
376,125.301,35.3023,28.7502,67.8006,13.5735,1.4347,3685.0507,27.3649,6.5521,0
377,125.693,35.1835,29.206,68.1092,13.468,1.4355,3501.9453,26.8089,5.9775,0
378,126.093,35.2329,28.7872,68.4783,13.5719,1.4163,3427.5268,26.8128,6.4457,0
379,126.496,35.1648,28.8163,67.6072,13.5034,1.4117,3705.0759,28.479,6.3485,0
380,126.885,35.08,28.8415,67.8006,13.4181,1.3097,3597.6975,26.4321,6.2385,0
381,127.285,35.0858,28.7125,64.4379,14.1059,1.3407,3814.2058,27.138,6.3733,0
382,127.677,35.1748,28.8347,63.9166,13.8829,1.3151,3722.8542,26.2864,6.3401,0
383,128.074,35.3108,28.628,66.2669,14.0226,1.3286,3582.0895,26.4484,6.6828,0
384,128.476,35.1988,28.9196,65.8716,13.9295,1.3246,3607.2143,27.4328,6.2792,0
385,128.873,35.1988,28.7023,62.5872,14.3309,1.3549,3719.9306,27.8453,6.4965,0
386,129.265,35.0867,28.7337,63.8158,14.1035,1.3384,3703.7036,28.0865,6.353,0
387,129.657,35.1517,28.853,64.5954,14.2081,1.3149,3661.3642,27.1946,6.2987,0
388,130.055,35.1275,28.9946,63.4734,13.9716,1.2668,3666.2863,28.3517,6.1329,0
389,130.449,35.1173,28.529,65.0181,14.6497,1.2387,3764.9028,26.7902,6.5883,0
390,130.847,35.2197,28.8754,64.2243,14.6797,1.2381,3686.5603,26.8168,6.3443,0
391,131.246,35.2434,28.5666,63.5777,14.6489,1.224,3699.593,27.3598,6.6768,0
392,131.644,35.3293,28.7634,61.9799,14.8568,1.2291,3662.1093,27.5686,6.5659,0
393,132.042,35.2777,28.77,60.7228,14.6926,1.2324,3650.8193,26.4063,6.5077,0
394,132.446,35.3024,28.9087,63.0042,14.7201,1.2129,3871.1342,26.1413,6.3937,0
395,132.846,35.287,28.7304,59.9641,15.1009,1.1324,3801.3178,26.8909,6.5566,0
396,133.243,35.2444,28.6888,54.6367,15.3885,1.1328,3923.7912,25.9406,6.5556,0
397,133.643,35.2395,28.529,55.1901,15.3945,1.13,3781.3537,27.8421,6.7105,0
398,134.039,35.2876,28.5983,60.1392,15.3615,1.1504,3813.3977,25.4617,6.6893,0
399,134.445,35.3725,28.6311,60.2672,15.2638,1.1234,3915.5969,27.5135,6.7414,0
400,134.84,35.2802,28.4715,53.9589,15.3496,1.1498,3914.7456,25.4955,6.8087,0
401,135.242,35.3499,28.5719,53.7197,15.4589,1.1402,3893.7441,28.2321,6.778,0
402,135.635,35.2712,28.5021,58.0515,15.4079,1.1319,3843.3618,27.1987,6.7691,0
403,136.034,35.2802,28.5521,54.0805,15.3268,1.1402,4036.5986,26.4397,6.7281,0
404,136.432,35.4058,28.8163,57.0461,15.204,1.1547,3800.0336,26.5707,6.5895,0
405,136.835,35.3419,28.5125,49.7741,15.9315,1.0459,3832.5598,26.8869,6.8294,0
406,137.237,35.4268,28.4037,55.3926,15.7913,1.0227,3830.9282,26.3538,7.0231,0
407,137.641,35.4249,28.682,50.3095,15.9685,1.0402,4036.4172,27.8443,6.7429,0
408,138.035,35.4571,28.6875,51.4914,15.9338,1.0413,4101.9096,26.2712,6.7696,0
409,138.434,35.3222,28.5394,56.2291,15.9165,1.0326,4060.0891,26.4321,6.7828,0
410,138.833,35.377,28.5025,50.646,15.8779,1.0377,4007.1235,26.458,6.8745,0
411,139.234,35.2815,28.7431,56.0704,15.8535,1.0394,4032.0776,27.2291,6.5384,0
412,139.632,35.3753,28.6214,50.5683,15.9803,1.0438,3940.6279,26.117,6.7539,0
413,140.037,35.3654,28.8042,53.3333,15.9763,1.0359,3861.0039,26.1385,6.5612,0
414,140.444,35.3966,28.4783,54.6534,15.9228,1.0346,3844.675,27.626,6.9183,0
415,140.846,35.3291,28.628,52.5746,15.9716,1.0381,3922.7651,27.3342,6.7011,0
416,141.248,35.3583,28.3705,50.6195,15.7534,1.0339,3996.6252,27.8432,6.9878,0
417,141.646,35.4654,28.5612,50.9091,15.8889,1.0457,3899.142,26.4704,6.9042,0
418,142.053,35.5037,28.9569,51.0422,15.859,1.0411,3830.7653,26.1676,6.5468,0
419,142.462,35.5268,28.7804,50.9612,15.885,1.0491,3968.779,27.9124,6.7464,0
420,142.864,35.3617,28.628,52.9423,15.9393,1.0318,3928.7585,27.1077,6.7337,0
421,143.267,35.2907,28.241,53.922,15.9511,1.0353,4095.7492,28.5782,7.0497,0
422,143.663,35.3853,28.6107,56.1225,15.9338,1.039,3888.1928,26.0164,6.7746,0
423,144.073,35.382,28.5734,53.4279,15.9708,1.0374,4035.5126,26.6269,6.8086,0
424,144.479,35.2575,28.6082,54.9234,16.0126,1.0484,3958.4797,26.1892,6.6493,0
425,144.887,35.4996,28.5612,55.6533,15.8921,1.0248,3981.9484,26.7382,6.9384,0
426,145.294,35.3922,28.5455,56.0355,15.8834,1.0315,3966.5053,25.9074,6.8467,0
427,145.704,35.5104,28.737,54.9259,15.8386,1.017,4050.9521,27.4019,6.7734,0
428,146.108,35.2989,28.6005,54.5032,15.9748,1.0372,3928.2441,27.2383,6.6984,0
429,146.516,35.3888,28.5356,53.9748,16.0047,1.0374,3849.7731,26.0369,6.8532,0
430,146.93,35.3685,28.4794,54.42,15.8614,1.0486,4129.9555,28.2245,6.8891,0
431,147.33,35.4623,28.8313,51.5347,15.9338,1.0222,4147.6567,26.7922,6.631,0
432,147.735,35.2884,28.4851,49.868,15.9661,1.0257,3993.9645,26.7558,6.8033,0
433,148.144,35.2553,28.4104,50.0489,15.9157,1.022,4082.1879,26.562,6.8449,0
434,148.552,35.3691,28.5802,48.8759,15.9511,1.0264,4092.9555,26.4369,6.7889,0
435,148.961,35.2789,28.4919,50.9873,15.9,1.0337,4095.5629,26.9495,6.787,0
436,149.367,35.2513,28.4727,50.2835,15.9094,1.0669,4088.6787,26.1142,6.7786,0
437,149.779,35.3861,28.5598,52.7599,15.6136,1.0268,3879.6445,27.8252,6.8263,0
438,150.189,35.5153,28.529,53.7899,15.9905,1.0354,3979.1318,26.2165,6.9863,0
439,150.603,35.4594,28.6243,55.0798,15.8047,1.0535,3944.7729,27.9092,6.8351,0
440,151.013,35.2173,28.42,52.6802,15.9204,1.0797,4025.4047,26.3671,6.7973,0
441,151.427,35.4228,28.6413,49.9326,15.8795,1.0328,3911.0029,26.1601,6.7815,0
442,151.844,35.3922,28.8979,55.1373,15.8937,1.0311,3930.9892,27.6533,6.4943,0
443,152.255,35.3388,28.4715,59.8762,15.298,1.1302,4051.1342,27.4112,6.8673,0
444,152.666,35.2667,28.42,54.556,15.3394,1.1299,4008.9089,27.5094,6.8467,0
445,153.076,35.3098,28.5666,60.9854,15.3654,1.1338,4018.3955,27.7542,6.7432,0
446,153.487,35.3581,28.4919,54.5064,15.3,1.1249,4021.0886,26.7147,6.8662,0
447,153.902,35.2934,28.5356,57.5414,15.2158,1.1154,3776.1181,27.2637,6.7578,0
448,154.319,35.3499,28.6118,60.1629,15.2284,1.1532,4027.206,26.702,6.7381,0
449,154.734,35.2465,28.5598,56.1416,15.278,1.1238,3865.8132,25.7248,6.6867,0
450,155.158,35.3386,28.7634,60.8703,15.2497,1.1132,3809.5236,26.6124,6.5752,0
451,155.581,35.295,28.5496,56.696,15.2118,1.1098,3908.2856,26.1864,6.7454,0
452,156.003,35.2725,28.4728,55.8506,15.2772,1.1361,4047.1267,27.577,6.7997,0
453,156.417,35.4048,28.5225,59.824,15.2725,1.1128,3809.2014,26.6172,6.8823,0
454,156.839,35.3372,28.4563,57.6735,15.2394,1.1454,3899.4799,25.8085,6.8809,0
455,157.262,35.3341,28.5738,56.1746,15.3158,1.1356,3728.5607,27.3454,6.7603,0
456,157.684,35.2815,28.5666,53.9531,15.2536,1.1224,3803.2453,26.5533,6.7149,0
457,158.107,35.3848,28.7436,57.2212,15.3481,1.1252,3763.0136,26.4647,6.6412,0
458,158.535,35.3401,28.5292,57.0753,15.43,1.1271,3751.5632,27.4555,6.8109,0
459,158.958,35.4484,28.4992,53.9531,15.3812,1.1103,3901.5087,27.1168,6.9492,0
460,159.379,35.2,28.5123,55.9922,15.3524,1.1287,4055.6982,27.6648,6.6877,0
461,159.795,35.325,28.6644,53.5521,15.2993,1.1196,3930.8176,26.7088,6.6606,0
462,160.218,35.3653,28.7431,57.2695,15.3941,1.1175,3798.5903,27.6763,6.6222,0
463,160.641,35.3144,28.8031,59.4964,15.3197,1.1314,3968.0791,25.9424,6.5113,0
464,161.067,35.3273,28.6446,55.4708,15.3929,1.1235,3946.6757,26.878,6.6827,0
465,161.49,35.2802,28.6413,56.5135,15.2898,1.1217,3770.8972,25.9203,6.6389,0
466,161.922,35.3098,28.4893,58.8856,15.191,1.2348,3760.0266,26.131,6.8205,0
467,162.353,35.2631,28.6247,60.3947,14.8048,1.2185,3856.7019,28.1049,6.6384,0
468,162.775,35.1822,28.5496,63.3952,14.7348,1.2292,3835.8266,27.5936,6.6326,0
469,163.2,35.2667,28.6743,62.746,14.9048,1.2286,3671.072,27.9295,6.5924,0
470,163.629,35.2494,28.6209,60.6321,14.6694,1.2356,3911.0029,26.2807,6.6285,0
471,164.058,35.1951,28.7833,57.8849,14.6222,1.2129,3851.5854,27.5551,6.4118,0
472,164.484,35.2461,28.6684,61.4663,14.7426,1.2103,3687.7687,27.7426,6.5777,0
473,164.915,35.3617,28.8493,63.0102,14.6064,1.2273,3646.9729,27.2617,6.5124,0
474,165.348,35.2531,28.5971,59.6416,14.756,1.2322,3789.4736,28.4801,6.656,0
475,165.774,35.3413,28.7397,63.3431,14.6671,1.2151,3917.6425,26.8741,6.6016,0
476,166.203,35.0645,28.6786,64.0991,14.8382,1.2194,3862.9926,28.219,6.3859,0
477,166.629,35.1627,28.5869,59.3027,14.7177,1.234,3639.1572,26.7235,6.5758,0
478,167.066,35.3728,28.7533,64.3436,14.6198,1.2183,3865.1491,26.8741,6.6195,0
479,167.497,35.2988,28.8724,63.028,14.6553,1.2236,3832.8862,26.4666,6.4264,0
480,167.93,35.3082,28.5125,64.8596,14.7143,1.2292,3920.5434,27.0464,6.7957,0
481,168.36,35.2264,28.5632,62.3265,14.8166,1.2111,3845.332,26.6532,6.6632,0
482,168.794,35.2691,28.453,63.8821,14.9048,1.2267,3628.0083,27.2484,6.8161,0
483,169.231,35.2968,28.7733,59.7606,14.6923,1.2238,3884.1655,25.9102,6.5235,0
484,169.668,35.4011,28.6545,59.0304,14.4887,1.2348,3680.831,25.972,6.7466,0
485,170.109,35.3288,28.8347,65.22,14.6206,1.2181,3751.2504,26.2174,6.4941,0
486,170.549,35.2815,28.5455,58.7032,14.5251,1.2424,3710.5751,27.1218,6.736,0
487,170.987,35.3221,28.7023,63.8384,14.5742,1.2616,3874.3007,26.0713,6.6198,0
488,171.425,35.2849,28.6539,66.9404,14.2702,1.2964,3704.9233,27.8815,6.631,0
489,171.86,35.0947,28.5025,64.8596,14.1711,1.3201,3702.4848,26.8652,6.5922,0
490,172.3,35.2814,28.8042,66.5754,14.0655,1.3225,3567.8889,26.9754,6.4772,0
491,172.744,35.2071,28.4662,69.214,13.9868,1.3366,3505.4919,27.2464,6.7409,0
492,173.189,35.2191,28.8427,69.1561,13.8648,1.3428,3554.7832,26.7578,6.3764,0
493,173.635,35.0944,28.5752,67.7843,14.127,1.3098,3596.4035,26.5533,6.5192,0
494,174.081,35.2503,28.7271,66.8882,13.919,1.3202,3687.3156,26.3319,6.5232,0
495,174.526,35.1331,28.7567,66.002,13.8317,1.3149,3670.9223,28.0876,6.3764,0
496,174.964,35.3098,28.813,67.3466,14.1868,1.3226,3784.8522,27.7016,6.4968,0
497,175.4,35.2721,28.6776,63.8556,14.1136,1.3344,3551.1364,27.0775,6.5945,0
498,175.848,35.2839,28.7205,63.0366,13.8706,1.3335,3632.2543,28.5347,6.5634,0
499,176.286,35.1295,28.7403,66.9672,13.9884,1.3288,3749.0627,26.2335,6.3892,0
500,176.732,35.2739,28.6842,65.9164,14.1435,1.3249,3821.4936,26.5523,6.5897,0
501,177.175,35.047,28.6956,67.6675,14.1034,1.3236,3770.423,26.9147,6.3514,0
502,177.618,35.0721,28.595,69.3773,14.0451,1.3101,3706.7546,28.4047,6.4771,0
503,178.058,35.2503,28.6141,67.1489,14.1585,1.3404,3552.9587,27.3526,6.6362,0
504,178.506,35.0957,28.6875,69.7976,14.271,1.3093,3677.6723,27.73,6.4082,0
505,178.95,35.0062,28.6446,68.9475,14.1451,1.3132,3645.4958,27.4648,6.3616,0
506,179.396,35.1568,28.8144,69.3016,14.0128,1.3264,3681.4333,27.2841,6.3424,0
507,179.843,35.1836,28.6875,68.9736,13.9303,1.328,3781.0358,27.1885,6.4961,0
508,180.288,35.0969,28.7139,68.0563,14.0726,1.3214,3523.0563,27.7669,6.383,0
509,180.738,35.2051,28.8822,63.7341,14.086,1.3261,3751.5632,27.145,6.3229,0
510,181.184,35.3254,28.6956,62.9,13.9546,1.3198,3549.8757,27.6585,6.6298,0
511,181.637,35.2575,28.9021,67.9506,14.1553,1.3414,3774.3762,27.8847,6.3554,0
512,182.081,35.0395,28.5564,69.7817,13.4861,1.4098,3444.8442,26.4397,6.4831,0
513,182.542,35.1275,28.5802,73.77,13.7475,1.4095,3516.0371,27.3978,6.5473,0
514,182.995,35.1958,28.7733,69.7472,13.3995,1.4184,3665.2414,27.4483,6.4225,0
515,183.445,35.2164,28.7159,70.2248,13.2933,1.4107,3412.8398,27.4112,6.5005,0
516,183.903,35.1382,28.8394,70.4341,13.3105,1.4217,3711.3403,27.3219,6.2988,0
517,184.352,35.1278,28.6809,70.7511,13.627,1.4045,3526.9221,26.9197,6.4469,0
518,184.81,35.07,28.6311,72.3884,13.79,1.401,3507.1311,26.3348,6.4389,0
519,185.27,35.2433,28.5521,73.2345,13.6034,1.4157,3581.0917,26.0369,6.6912,0
520,185.73,35.1055,28.7329,73.796,13.4908,1.4202,3429.486,27.8964,6.3726,0
521,186.187,35.1536,28.7171,72.9619,13.5209,1.4093,3467.8071,27.4835,6.4365,0
522,186.647,35.1836,29.0112,71.3442,13.6018,1.4137,3489.8601,26.5089,6.1724,0
523,187.109,35.2898,28.7872,67.8788,13.6326,1.4035,3675.2695,27.3814,6.5026,0
524,187.563,35.1107,28.77,69.8793,13.5208,1.4069,3589.0891,27.0224,6.3407,0
525,188.021,35.2204,28.704,67.7393,13.6396,1.4256,3664.7934,27.822,6.5164,0
526,188.476,35.1173,28.6888,72.0756,13.6318,1.4047,3607.2143,27.144,6.4285,0
527,188.935,35.1288,28.665,69.3907,13.627,1.4122,3621.0017,27.0524,6.4638,0
528,189.392,35.2395,28.7469,69.1131,13.653,1.4209,3682.0358,26.4599,6.4926,0
529,189.853,35.2826,28.6644,67.7843,13.3753,1.4229,3453.4362,27.1693,6.6182,0
530,190.316,35.2273,28.7469,70.7606,13.4027,1.413,3680.229,26.1114,6.4804,0
531,190.778,35.2434,28.9196,73.4832,13.479,1.5006,3355.3293,27.9659,6.3238,0
532,191.242,35.2354,28.6743,77.9928,12.9578,1.4973,3470.3479,26.7,6.5611,0
533,191.709,35.1964,28.846,72.6533,13.0232,1.5076,3347.218,27.225,6.3504,0
534,192.177,35.0033,28.6875,73.076,13.0814,1.5042,3587.8015,27.3362,6.3158,0
535,192.638,35.1596,28.9418,79.0204,12.8279,1.5098,3556.0473,26.2401,6.2178,0
536,193.104,35.0906,28.8313,75.2037,12.7838,1.504,3448.9365,26.9455,6.2593,0
537,193.573,34.9522,28.7023,72.5187,13.0129,1.5091,3394.4331,27.6595,6.2499,0
538,194.04,34.9636,28.6738,71.2795,12.9657,1.5241,3597.9851,26.132,6.2898,0
539,194.508,35.0446,28.7887,74.187,12.739,1.5306,3524.7121,26.7401,6.2559,0
540,194.977,35.0104,28.7716,77.4088,12.7539,1.518,3418.2841,27.6554,6.2388,0
541,195.445,34.9578,28.7193,79.0094,12.7927,1.5255,3381.5517,27.4597,6.2385,0
542,195.916,35.2098,28.7719,77.7582,13.0145,1.5104,3363.8571,25.6804,6.4379,0
543,196.396,35.0944,28.6718,73.7439,12.9885,1.5261,3336.4226,28.0822,6.4226,0
544,196.867,35.0596,28.7568,72.7533,12.9132,1.4987,3349.7097,26.3624,6.3028,0
545,197.344,35.2107,28.7238,73.1024,12.7689,1.524,3571.9956,26.8444,6.4869,0
546,197.813,35.0306,28.8449,73.9003,12.9027,1.5125,3524.298,27.4411,6.1857,0
547,198.281,35.0188,28.6514,72.5448,12.9958,1.528,3441.2878,26.4474,6.3674,0
548,198.757,35.0969,28.8483,72.7794,12.7894,1.5207,3335.4333,27.4081,6.2486,0
549,199.232,34.9837,28.8856,76.9241,12.9859,1.5088,3512.8803,26.2902,6.0981,0
550,199.707,34.9187,28.5666,76.8213,13.0475,1.5089,3339.0219,26.5128,6.3521,0
551,200.187,34.8898,28.906,76.7938,12.8988,1.5973,3412.3222,26.1011,5.9838,0
552,200.667,35.047,28.8988,75.9857,12.4335,1.6063,3256.1506,26.1554,6.1482,0
553,201.152,35.1138,28.955,75.533,12.4491,1.5895,3281.1987,27.9092,6.1588,0
554,201.63,34.9628,28.6854,82.3449,12.2036,1.6104,3292.9638,27.1299,6.2774,0
555,202.11,35.1215,28.8031,79.2701,12.2837,1.5991,3475.7087,26.6746,6.3184,0
556,202.588,35.1068,28.7568,77.8315,12.3036,1.6398,3206.6127,26.6844,6.35,0
557,203.074,34.9417,28.5598,77.3389,12.3525,1.5935,3231.9458,27.0424,6.3819,0
558,203.559,35.0891,28.8889,78.1485,12.2501,1.587,3212.5646,26.5591,6.2002,0
559,204.046,34.7838,28.7023,75.9857,12.3398,1.6055,3312.7207,28.4235,6.0815,0
560,204.525,35.0104,28.6082,82.7242,12.5697,1.6023,3388.6818,27.1622,6.4022,0
561,205.005,34.9625,28.9671,75.8765,12.3493,1.6069,3226.269,27.139,5.9954,0
562,205.492,34.9358,28.7073,81.1603,12.4052,1.5995,3284.312,26.8602,6.2285,0
563,205.978,34.8478,28.5428,80.6233,12.2878,1.6074,3293.205,27.2902,6.305,0
564,206.461,34.8231,28.4104,79.1659,12.2564,1.6063,3273.0844,26.0983,6.4127,0
565,206.951,34.8769,28.6005,83.1281,12.3621,1.6218,3444.185,26.5717,6.2764,0
566,207.434,34.9618,28.4885,81.7029,12.5406,1.6003,3373.0605,26.8385,6.4733,0
567,207.919,34.9174,28.811,80.6778,12.5038,1.591,3364.2346,26.9296,6.1064,0
568,208.404,35.0062,28.8229,79.628,12.4666,1.6173,3411.2875,27.8103,6.1833,0
