,Time (sec),DP1 (psi),PT1 (psi),PT2 (psi),Torque (mNm),V (V),I (A),Speed (RPM),Flow Rate (GPM),GV Angle (deg)
0,0.0,0.0,38.2855,30.817,377.7568,3.0231,6.1979,4320.0,26.9964,0.0
1,0.0,30.0,38.3005,30.7456,385.3314,3.2153,6.7281,4380.0,27.2396,0.0
2,4.055,30.0,38.2951,30.7269,457.6088,3.5473,5.4784,4320.0,26.9964,0.0
3,8.11,30.0,38.1841,30.6431,358.2618,3.1079,6.4601,4320.0,27.2396,0.0
4,12.165,30.0,38.2829,30.6333,890.6649,5.4131,6.4902,4320.0,27.2396,0.0
5,16.222,30.0,38.2198,30.645,889.5988,5.4909,6.6007,4320.0,27.2396,0.0
6,20.278,30.0,38.2256,30.6873,891.4556,5.5331,6.6583,4320.0,26.9964,0.0
7,24.334,30.0,38.3687,30.6893,891.3677,5.514,6.6184,4320.0,27.2396,0.0
8,28.389,30.0,38.2858,30.7097,891.7191,5.504,6.4939,4260.0,27.2396,0.0
9,32.444,30.0,38.1777,30.6635,1006.7664,5.8906,6.658,4020.0,27.2396,0.0
10,36.5,30.0,37.9479,30.9284,1007.9994,5.965,6.6997,4020.0,26.7531,0.0
11,40.556,30.0,37.9063,31.0425,393.5706,3.2612,6.5134,3960.0,26.7531,0.0
12,44.611,30.0,37.9924,30.9136,384.9084,3.1772,6.5415,3960.0,27.2396,0.0
13,48.666,30.0,37.9667,30.9303,512.1762,3.5259,6.5823,4020.0,26.9964,0.0
14,52.721,30.0,37.957,30.9487,348.6861,1.8411,6.2482,3960.0,26.5099,0.0
15,56.776,30.0,38.0057,30.8806,536.9179,3.5284,6.4471,3960.0,26.7531,0.0
16,60.831,30.0,38.0158,30.8854,1006.909,5.8803,6.6436,4020.0,26.5099,0.0
17,64.887,30.0,37.9652,31.0363,387.7001,3.1993,6.3006,4020.0,26.7531,0.0
18,68.942,30.0,37.9619,30.9648,388.6138,3.2152,6.196,4020.0,26.7531,0.0
19,72.998,30.0,37.9684,30.8883,380.45,3.1232,6.4002,4020.0,26.7531,0.0
20,77.053,30.0,37.9832,30.9445,530.6096,3.5424,6.4851,4020.0,26.7531,0.0
21,81.108,30.0,37.9689,30.9842,454.5815,3.5016,5.4532,3960.0,26.9964,0.0
22,85.164,30.0,37.9233,30.9406,1007.1373,5.9217,6.4475,3960.0,26.7531,0.0
23,89.221,30.0,38.0285,30.938,387.9704,3.1844,6.3206,4020.0,26.7531,0.0
24,93.278,30.0,38.0042,30.9032,384.6824,3.1744,6.3307,3780.0,27.726,0.0
25,97.334,30.0,37.7134,30.8509,505.7412,3.5068,6.4959,3780.0,27.726,0.0
26,101.39,30.0,37.6714,30.8287,1003.4103,5.8743,6.6439,3780.0,27.2396,0.0
27,105.447,30.0,37.7166,30.7158,893.1959,5.5018,6.515,3840.0,27.4828,0.0
28,109.503,30.0,37.6326,30.8156,1002.4595,5.9353,6.6143,3840.0,27.4828,0.0
29,113.56,30.0,37.6473,30.7095,384.6198,3.134,6.3528,3780.0,27.726,0.0
30,117.616,30.0,37.6467,30.8435,507.9105,3.5828,6.4082,3780.0,27.2396,0.0
31,121.672,30.0,37.7284,30.7866,389.8661,3.1477,6.405,3840.0,27.4828,0.0
32,125.728,30.0,37.705,30.8225,892.4042,5.5027,6.413,3840.0,27.2396,0.0
33,129.784,30.0,37.6581,30.8725,1002.8771,5.9174,6.649,3840.0,27.2396,0.0
34,133.841,30.0,37.5963,30.9658,387.6808,3.2324,6.382,3600.0,26.7531,0.0
35,137.897,30.0,37.705,30.9956,376.6142,3.2015,6.3365,3600.0,27.2396,0.0
36,141.955,30.0,37.729,30.973,508.7831,4.0332,6.5322,3600.0,26.7531,0.0
37,146.012,30.0,37.8329,31.0244,363.1871,3.0982,6.4394,3600.0,26.7531,0.0
38,150.069,30.0,37.7494,31.0146,392.8832,3.2167,6.28,3600.0,27.2396,0.0
39,154.126,30.0,37.6983,31.0157,1002.9969,5.8744,6.551,3600.0,26.7531,0.0
40,158.183,30.0,37.6932,31.0697,896.7184,5.4682,6.5417,3600.0,26.7531,0.0
41,162.239,30.0,37.692,31.0372,359.8392,3.1404,6.3987,3600.0,26.7531,0.0
42,166.295,30.0,37.6513,31.0205,1003.5491,5.9021,6.6123,3600.0,27.2396,0.0
43,170.353,30.0,37.7083,30.9938,897.2438,5.4486,6.5617,3600.0,26.7531,0.0
44,174.409,30.0,37.6219,31.0663,360.653,3.174,6.3523,3360.0,26.7531,0.0
45,178.465,30.0,37.4339,30.9452,997.8119,5.8708,6.5388,3420.0,26.9964,0.0
46,182.521,30.0,37.2881,30.9353,514.4382,3.5895,6.4606,3420.0,26.7531,0.0
47,186.578,30.0,37.5033,31.0034,374.5277,3.1406,6.4516,3360.0,26.7531,0.0
48,190.635,30.0,37.3635,30.9671,2000.0,9.3215,6.9479,3360.0,26.9964,0.0
49,194.693,30.0,37.3634,31.0259,2000.0,9.4315,7.0203,3360.0,26.9964,0.0
50,198.752,30.0,37.3773,31.0291,2000.0,9.5055,6.9173,3360.0,26.7531,0.0
51,202.809,30.0,37.3945,31.0215,2000.0,9.4825,7.0987,3360.0,27.2396,0.0
52,206.866,30.0,37.3366,30.9529,2000.0,9.5454,7.1331,3360.0,26.7531,0.0
53,210.923,30.0,37.3921,31.0805,2000.0,9.4951,6.9755,3420.0,26.7531,0.0
54,214.98,30.0,37.3847,31.1389,2000.0,9.52,7.0172,3180.0,27.2396,0.0
55,219.037,30.0,37.2158,31.1633,2000.0,9.5432,7.046,3180.0,27.2396,0.0
56,223.095,30.0,37.3456,31.1225,2000.0,9.5212,7.0452,3180.0,26.9964,0.0
57,227.152,30.0,37.3043,31.2538,2000.0,9.513,7.216,3180.0,27.2396,0.0
58,231.209,30.0,37.3159,31.1597,2000.0,9.484,7.0819,3180.0,26.7531,0.0
59,235.268,30.0,37.2857,31.1601,2000.0,9.5165,7.042,3180.0,26.7531,0.0
60,239.326,30.0,37.3917,31.2257,2000.0,9.5168,7.043,3180.0,26.9964,0.0
61,243.384,30.0,37.3341,31.2129,2000.0,9.5298,7.1011,3180.0,26.7531,0.0
62,247.441,30.0,37.3773,31.1723,2000.0,9.4675,7.0831,3180.0,27.2396,0.0
63,251.499,30.0,37.3982,31.1958,2000.0,9.5114,7.0767,3180.0,27.4828,0.0
64,255.556,30.0,37.3139,31.1884,2000.0,9.5162,6.8754,3000.0,26.7531,0.0
65,259.613,30.0,37.1738,31.1317,2000.0,9.5774,7.1283,3000.0,27.2396,0.0
66,263.671,30.0,37.2515,31.1702,2000.0,9.5801,6.9802,3000.0,27.2396,0.0
67,267.728,30.0,37.148,31.2221,2000.0,9.5176,7.0903,3000.0,26.7531,0.0
68,271.785,30.0,37.2478,31.1772,2000.0,9.5366,7.0816,3000.0,26.9964,0.0
69,275.844,30.0,37.1767,31.1665,2000.0,9.5205,7.0793,2940.0,27.2396,0.0
70,279.902,30.0,37.1634,31.1246,2000.0,9.5115,6.9962,2940.0,26.9964,0.0
71,283.96,30.0,37.2005,31.1134,2000.0,9.5185,7.0099,2940.0,27.2396,0.0
72,288.017,30.0,37.1749,31.2477,2000.0,9.457,7.0272,2940.0,26.9964,0.0
73,292.075,30.0,37.071,31.1394,2000.0,9.4708,7.0115,2940.0,26.7531,0.0
74,296.132,30.0,37.1404,31.1025,2000.0,9.5548,7.1092,2940.0,27.2396,0.0
75,300.189,30.0,37.2603,31.1479,2000.0,9.5215,7.0502,3000.0,27.2396,0.0
76,304.247,30.0,37.2503,31.1785,2000.0,9.5393,6.9751,3000.0,26.9964,0.0
77,308.304,30.0,37.2381,31.1379,2000.0,9.5241,7.1656,2940.0,26.9964,0.0
78,312.361,30.0,37.2355,31.0754,2000.0,9.5599,6.939,3000.0,27.2396,0.0
79,316.42,30.0,37.1705,31.1708,2000.0,9.5215,7.0123,3000.0,26.7531,10.0
80,324.182,30.0,32.0045,21.5204,2000.0,9.3678,7.077,4560.0,26.7531,10.0
81,328.241,30.0,32.0911,21.7016,2000.0,9.2655,6.9526,4620.0,26.7531,10.0
82,332.3,30.0,32.2745,21.8265,2000.0,9.2736,6.8278,4560.0,26.2667,10.0
83,336.358,30.0,32.2775,21.7433,2000.0,9.3084,6.7222,4560.0,26.2667,10.0
84,340.417,30.0,32.2815,21.8858,2000.0,9.2722,6.8025,4560.0,26.7531,10.0
85,344.475,30.0,32.2424,21.8534,2000.0,9.2735,6.9056,4560.0,26.7531,10.0
86,348.533,30.0,32.331,21.9283,2000.0,9.3366,6.8355,4560.0,26.2667,10.0
87,352.591,30.0,32.3702,21.9363,2000.0,9.2733,6.7882,4560.0,26.2667,10.0
88,356.649,30.0,32.491,21.933,2000.0,9.3101,7.0274,4620.0,26.5099,10.0
89,360.709,30.0,32.4442,21.9619,2000.0,9.291,6.8083,4560.0,26.7531,10.0
90,364.769,30.0,32.3993,21.812,2000.0,9.2927,6.891,4800.0,26.2667,10.0
91,368.828,30.0,33.0228,21.7931,2000.0,9.2497,6.8538,4980.0,26.2667,10.0
92,372.886,30.0,32.9427,21.7902,2000.0,9.3253,6.755,4980.0,26.2667,10.0
93,376.944,30.0,32.856,21.7263,2000.0,9.2946,6.9335,4980.0,26.2667,10.0
94,381.002,30.0,32.8957,21.7885,2000.0,9.3208,6.8954,4980.0,26.2667,10.0
95,385.06,30.0,33.0323,21.7473,2000.0,9.2779,6.9122,4980.0,26.2667,10.0
96,389.118,30.0,32.9272,21.8572,2000.0,9.3261,6.9491,4980.0,26.7531,10.0
97,393.178,30.0,34.3884,22.8099,2000.0,9.3253,6.7858,5280.0,27.2396,10.0
98,397.238,30.0,36.0878,24.1705,2000.0,9.303,6.8226,5340.0,27.726,10.0
99,401.297,30.0,36.2112,24.2047,2000.0,9.3602,6.8554,5280.0,27.726,10.0
100,405.356,30.0,36.2065,24.1243,2000.0,9.3478,6.8825,5280.0,27.726,10.0
101,409.414,30.0,35.4048,23.5872,2000.0,9.3535,6.8543,5220.0,27.2396,10.0
102,413.472,30.0,35.3893,23.5451,2000.0,9.3833,6.9097,5220.0,27.2396,10.0
103,417.53,30.0,35.4624,23.547,2000.0,9.3892,6.7673,5220.0,27.2396,10.0
104,421.588,30.0,35.5362,23.6648,2000.0,9.2997,6.964,5220.0,27.2396,10.0
105,425.647,30.0,35.5259,23.6502,2000.0,9.3706,6.7977,5220.0,26.9964,10.0
106,429.707,30.0,35.4827,23.6211,2000.0,9.2742,6.8153,5220.0,27.2396,10.0
107,433.766,30.0,35.4429,23.6258,2000.0,9.3186,6.8849,5220.0,27.726,10.0
108,437.825,30.0,35.4282,23.5931,2000.0,9.3036,6.7704,5220.0,27.2396,10.0
109,441.883,30.0,35.4547,23.5945,2000.0,9.3884,6.949,5220.0,27.2396,10.0
110,445.941,30.0,35.4993,23.6506,2000.0,9.2921,6.8682,5220.0,27.2396,10.0
111,449.999,30.0,35.5336,23.5439,2000.0,9.3478,6.9856,5220.0,27.2396,10.0
112,454.057,30.0,35.4336,23.671,2000.0,9.353,6.8929,5280.0,27.2396,10.0
113,458.117,30.0,35.3996,23.6905,2000.0,9.3174,6.8376,5220.0,27.2396,10.0
114,462.177,30.0,35.4597,23.5695,2000.0,9.333,6.9553,5220.0,26.9964,10.0
115,466.236,30.0,35.4549,23.5803,2000.0,9.2772,6.9166,5220.0,27.4828,10.0
116,470.294,30.0,35.3744,23.656,2000.0,9.3457,6.8737,5220.0,27.4828,10.0
117,474.352,30.0,35.4982,23.743,2000.0,9.3914,6.9569,5220.0,27.2396,10.0
118,478.41,30.0,35.2793,23.6985,2000.0,9.3169,6.9342,5040.0,26.7531,10.0
119,482.468,30.0,35.3098,23.7002,2000.0,9.3208,6.9243,5040.0,26.9964,10.0
120,486.526,30.0,35.2354,23.7748,2000.0,9.3644,6.9116,5040.0,27.2396,10.0
121,490.586,30.0,35.2426,23.743,2000.0,9.3293,6.9548,5040.0,27.2396,10.0
122,494.646,30.0,35.4062,23.7834,2000.0,9.331,6.8795,5040.0,27.2396,10.0
123,498.705,30.0,35.3342,23.7105,2000.0,9.3522,6.852,4980.0,26.9964,10.0
124,502.764,30.0,35.3839,23.7624,2000.0,9.3213,6.8824,5040.0,27.2396,10.0
125,506.822,30.0,35.3322,23.8464,2000.0,9.341,6.8588,5040.0,27.2396,10.0
126,510.88,30.0,35.3749,23.7612,2000.0,9.344,6.8362,5040.0,27.2396,10.0
127,514.938,30.0,35.0634,23.7976,2000.0,9.3019,6.8763,4860.0,27.2396,10.0
128,518.996,30.0,35.0994,23.6757,2000.0,9.3185,6.8939,4860.0,27.2396,10.0
129,523.055,30.0,35.0154,23.8056,2000.0,9.3781,7.0266,4860.0,27.2396,10.0
130,527.115,30.0,35.0791,23.8141,2000.0,9.3521,6.9548,4860.0,27.2396,10.0
131,531.174,30.0,35.1177,23.8678,2000.0,9.3156,6.7567,4800.0,27.2396,10.0
132,535.233,30.0,34.9987,23.7889,2000.0,9.325,6.8406,4860.0,27.4828,10.0
133,539.291,30.0,35.0369,23.8659,2000.0,9.3183,6.7735,4800.0,27.4828,10.0
134,543.349,30.0,35.0481,23.9052,2000.0,9.31,6.7352,4860.0,27.2396,10.0
135,547.407,30.0,35.0886,23.839,2000.0,9.3751,6.9344,4860.0,27.2396,10.0
136,551.465,30.0,35.1983,23.9015,2000.0,9.3046,6.8721,4860.0,26.9964,10.0
137,555.525,30.0,35.1422,23.8323,2000.0,9.3114,6.8121,4800.0,27.2396,10.0
138,559.585,30.0,35.0832,23.816,2000.0,9.2698,6.922,4740.0,27.2396,10.0
139,563.644,30.0,34.8119,23.8857,2000.0,9.3386,6.8548,4620.0,27.726,10.0
140,567.702,30.0,34.7927,23.8718,2000.0,9.3543,6.8351,4680.0,27.2396,10.0
141,571.76,30.0,34.8604,23.9375,2000.0,9.3487,6.9723,4620.0,27.2396,10.0
142,575.818,30.0,34.8795,23.9457,2000.0,9.3048,6.8779,4680.0,27.726,10.0
143,579.876,30.0,34.8235,23.9238,2000.0,9.3669,6.8549,4680.0,27.2396,10.0
144,583.934,30.0,34.8062,23.8676,2000.0,9.2894,6.8403,4680.0,27.726,10.0
145,587.994,30.0,34.7265,23.9977,2000.0,9.3012,6.837,4620.0,27.4828,10.0
146,592.054,30.0,34.8765,23.8453,2000.0,9.2975,6.8536,4620.0,27.2396,10.0
147,596.113,30.0,34.9179,23.9579,2000.0,9.2989,6.8525,4680.0,27.2396,10.0
148,600.172,30.0,34.8453,23.9185,2000.0,9.38,7.0274,4680.0,27.4828,10.0
149,604.23,30.0,34.8123,23.9659,2000.0,9.3434,6.8829,4680.0,27.726,10.0
150,608.288,30.0,34.7239,23.8388,2000.0,9.2876,6.8383,4560.0,27.2396,10.0
151,612.346,30.0,34.5804,23.9725,2000.0,9.3093,6.8337,4440.0,27.726,10.0
152,616.404,30.0,34.5872,23.9144,2000.0,9.3287,6.8846,4440.0,27.4828,10.0
153,620.463,30.0,34.6836,24.0006,2000.0,9.3365,6.9351,4500.0,27.726,10.0
154,624.523,30.0,34.6951,24.0963,2000.0,9.303,6.8415,4500.0,27.4828,10.0
155,628.582,30.0,34.5978,23.9648,2000.0,9.3323,6.9904,4440.0,27.726,10.0
156,632.641,30.0,34.6151,24.0008,2000.0,9.3393,6.8436,4500.0,27.726,10.0
157,636.699,30.0,34.6757,24.0194,2000.0,9.3316,6.8211,4500.0,27.2396,10.0
158,640.757,30.0,34.6131,24.0683,2000.0,9.315,6.9564,4500.0,27.726,10.0
159,644.815,30.0,34.6286,23.9924,2000.0,9.3195,6.9315,4500.0,27.9692,10.0
160,648.873,30.0,34.5155,24.0129,2000.0,9.3182,6.865,4260.0,27.726,10.0
161,652.933,30.0,34.4159,23.9751,2000.0,9.3536,6.7533,4320.0,27.726,10.0
162,656.993,30.0,34.3354,23.9423,2000.0,9.3529,6.8964,4260.0,27.9692,10.0
163,661.052,30.0,34.2427,23.9741,2000.0,9.3924,6.9324,4320.0,27.726,10.0
164,665.11,30.0,34.2085,23.9593,2000.0,9.3417,7.0009,4260.0,27.726,10.0
165,669.168,30.0,34.3137,23.8314,2000.0,9.2802,6.8772,4260.0,27.726,10.0
166,673.226,30.0,34.2055,23.8059,2000.0,9.2872,6.9231,4260.0,28.2124,10.0
167,677.284,30.0,34.2562,23.8219,2000.0,9.2719,6.7815,4260.0,27.4828,10.0
168,681.342,30.0,34.1915,23.9034,2000.0,9.3321,6.8331,4260.0,27.726,10.0
169,685.402,30.0,34.2172,23.9448,2000.0,9.3301,6.8663,4320.0,27.726,10.0
170,689.462,30.0,34.3264,23.9063,2000.0,9.3311,6.9862,4260.0,27.9692,10.0
171,693.521,30.0,34.2466,23.9583,2000.0,9.3048,6.8343,4260.0,27.4828,10.0
172,697.58,30.0,34.2727,23.8931,2000.0,9.2799,6.9369,4260.0,27.726,10.0
173,701.638,30.0,34.3151,23.8926,2000.0,9.3223,6.9928,4320.0,27.726,10.0
174,705.696,30.0,34.3273,24.0229,2000.0,9.29,6.8882,4020.0,27.726,10.0
175,709.754,30.0,34.2387,24.1046,2000.0,9.3465,6.8337,4080.0,27.2396,10.0
176,713.812,30.0,34.2103,24.0861,2000.0,9.3307,6.9862,4020.0,27.726,10.0
177,717.871,30.0,34.3087,24.12,2000.0,9.3301,6.9622,4020.0,27.726,10.0
178,721.931,30.0,34.2574,24.0496,2000.0,9.2971,6.9587,4080.0,27.726,10.0
179,725.99,30.0,34.2448,24.1024,2000.0,9.3134,6.7567,4080.0,27.726,10.0
180,730.049,30.0,34.2491,24.0373,2000.0,9.3156,6.9095,4080.0,27.726,10.0
181,734.107,30.0,34.2333,24.1472,2000.0,9.2983,6.9171,4020.0,27.726,10.0
182,738.165,30.0,34.1942,24.0487,2000.0,9.3038,6.8179,4020.0,27.4828,10.0
183,742.223,30.0,34.1884,24.0057,2000.0,9.3479,6.896,4080.0,27.726,10.0
184,746.281,30.0,34.1644,24.0634,2000.0,9.3716,6.9114,4080.0,27.726,10.0
185,750.341,30.0,34.1691,24.0436,2000.0,9.2959,6.8187,4080.0,27.726,10.0
186,754.401,30.0,34.1434,24.0307,2000.0,9.3102,6.834,4020.0,27.4828,10.0
187,758.46,30.0,34.1586,24.0215,2000.0,9.2921,6.9199,3840.0,27.726,10.0
188,762.518,30.0,34.0059,24.1356,2000.0,9.2832,6.9666,3840.0,27.726,10.0
189,766.576,30.0,34.0724,24.1282,2000.0,9.2948,6.9363,3840.0,27.726,10.0
190,770.634,30.0,34.0887,24.1594,2000.0,9.3108,6.8199,3840.0,27.726,10.0
191,774.692,30.0,34.112,24.0519,2000.0,9.3226,6.8897,3840.0,27.726,10.0
192,778.75,30.0,34.0692,24.1514,2000.0,9.3928,6.9622,3840.0,27.4828,10.0
193,782.81,30.0,34.0822,24.1076,2000.0,9.3723,6.9679,3840.0,27.726,10.0
194,786.87,30.0,34.0784,24.1229,2000.0,9.3235,7.0249,3840.0,27.2396,10.0
195,790.929,30.0,34.0193,24.1049,2000.0,9.3335,6.9315,3840.0,27.4828,10.0
196,794.988,30.0,33.9748,24.0482,2000.0,9.3058,6.7841,3840.0,27.4828,10.0
197,799.046,30.0,34.0726,24.1097,2000.0,9.2834,6.9496,4080.0,27.4828,10.0
198,803.104,30.0,34.1802,23.9743,2000.0,9.3404,6.7918,4080.0,27.726,10.0
199,807.162,30.0,34.1447,23.9313,2000.0,9.3175,6.9319,4080.0,27.726,10.0
200,811.22,30.0,34.0672,23.9641,2000.0,9.3653,6.8376,4020.0,27.726,10.0
201,815.279,30.0,34.0759,23.9851,2000.0,9.3316,6.8813,4020.0,27.4828,10.0
202,819.339,30.0,34.0761,23.9023,2000.0,9.3088,6.7576,4020.0,27.726,10.0
203,823.398,30.0,34.0988,23.9487,2000.0,9.3551,6.8728,4080.0,27.726,10.0
204,827.457,30.0,34.0942,24.0102,2000.0,9.3166,6.8467,4080.0,27.4828,10.0
205,831.515,30.0,34.0991,23.9911,2000.0,9.3214,6.9582,4080.0,27.4828,10.0
206,835.573,30.0,34.0202,23.8821,2000.0,9.3361,6.9683,4020.0,27.726,10.0
207,839.631,30.0,34.054,23.9056,2000.0,9.3337,6.8515,4080.0,27.4828,15.0
208,846.01,30.0,37.3948,22.0995,2000.0,9.4042,7.2984,5100.0,26.2667,15.0
209,850.068,30.0,37.3866,22.0875,2000.0,9.2709,6.9484,5040.0,26.7531,15.0
210,854.126,30.0,37.4461,22.1718,2000.0,9.3535,6.8956,5040.0,26.7531,15.0
211,858.184,30.0,37.4364,22.0653,2000.0,9.3191,6.8264,5100.0,26.7531,15.0
212,862.242,30.0,37.4766,21.8678,2000.0,9.401,6.9167,5640.0,26.7531,15.0
213,866.3,30.0,37.7589,21.8288,2000.0,9.3087,6.7943,5580.0,26.7531,15.0
214,870.359,30.0,37.7467,21.7683,2000.0,9.3228,6.8972,5580.0,27.2396,15.0
215,874.418,30.0,37.7471,21.6765,2000.0,9.2883,6.8517,5580.0,27.2396,0.0
216,883.559,30.0,31.3445,24.967,2000.0,9.4216,7.2514,3180.0,27.726,0.0
217,887.616,30.0,31.3753,24.9566,2000.0,9.3332,7.1199,3180.0,27.726,0.0
218,891.673,30.0,31.4594,24.9413,2000.0,9.3401,7.0075,3180.0,27.9692,0.0
219,895.73,30.0,31.3042,24.9024,2000.0,9.4018,6.9968,3180.0,27.4828,0.0
220,899.788,30.0,31.3442,24.9886,2000.0,9.3905,6.9278,3180.0,27.4828,0.0
221,903.845,30.0,31.3659,24.8333,2000.0,9.3491,6.9955,3180.0,28.2124,0.0
222,907.902,30.0,31.3381,24.9348,2000.0,9.3576,6.9292,3180.0,27.726,0.0
223,911.961,30.0,31.2754,24.9397,2000.0,9.3251,6.9072,2940.0,27.9692,0.0
224,916.019,30.0,31.0135,24.9385,2000.0,9.2935,6.8372,2940.0,28.2124,0.0
225,920.077,30.0,31.1781,24.8982,2000.0,9.308,6.9489,2940.0,27.726,0.0
226,924.134,30.0,31.1292,24.8018,2000.0,9.2675,6.9717,2940.0,27.726,0.0
227,928.192,30.0,31.1145,24.9138,2000.0,9.3582,7.048,2940.0,27.726,0.0
228,932.249,30.0,31.2836,24.8345,2000.0,9.3801,6.9184,2940.0,27.726,0.0
229,936.306,30.0,31.1705,24.9091,2000.0,9.3328,7.0806,2940.0,27.726,0.0
230,940.364,30.0,31.1276,24.8803,2000.0,9.3784,6.942,2940.0,27.9692,15.0
231,949.506,30.0,40.6015,20.0776,2000.0,9.3338,7.2683,6060.0,26.2667,15.0
232,953.565,30.0,40.3474,20.1843,2000.0,9.2055,7.0145,6060.0,26.7531,15.0
233,957.624,30.0,40.2509,20.1727,2000.0,9.2563,6.837,6000.0,26.2667,15.0
234,961.682,30.0,40.3011,20.1618,2000.0,9.213,6.9361,6060.0,26.5099,15.0
235,965.74,30.0,40.1327,20.204,2000.0,9.2005,6.9963,5640.0,26.7531,15.0
236,969.798,30.0,39.9193,20.4261,2000.0,9.2321,6.8392,5700.0,26.2667,15.0
237,973.856,30.0,39.9433,20.3392,2000.0,9.2506,7.0632,5700.0,26.2667,15.0
238,977.914,30.0,39.9416,20.4027,2000.0,9.2456,7.0256,5700.0,26.2667,15.0
239,981.972,30.0,39.8534,20.4243,2000.0,9.267,7.0082,5700.0,26.7531,15.0
240,986.031,30.0,39.8377,20.3611,2000.0,9.2618,6.8653,5640.0,26.5099,15.0
241,990.091,30.0,39.865,20.495,2000.0,9.2485,6.9936,5640.0,26.7531,15.0
242,994.15,30.0,39.8346,20.3855,2000.0,9.2597,6.9155,5640.0,26.2667,15.0
243,998.209,30.0,39.7814,20.4133,2000.0,9.207,6.9069,5700.0,26.7531,15.0
244,1002.267,30.0,41.1802,21.207,2000.0,9.3079,6.9788,5820.0,27.2396,15.0
245,1006.326,30.0,41.1186,21.1594,2000.0,9.2669,6.9757,5820.0,26.9964,15.0
246,1010.385,30.0,41.0905,21.2002,2000.0,9.2941,6.876,5820.0,26.7531,15.0
247,1014.445,30.0,41.2479,21.1615,2000.0,9.2728,6.795,5940.0,27.2396,15.0
248,1018.505,30.0,42.3422,21.83,2000.0,9.2495,7.0004,5940.0,27.2396,15.0
249,1022.565,30.0,42.4539,21.9191,2000.0,9.3043,7.0466,5940.0,27.4828,15.0
250,1026.624,30.0,42.376,21.9908,2000.0,9.3157,6.792,5880.0,27.2396,15.0
251,1030.6829,30.0,42.3916,22.0728,2000.0,9.3655,6.9797,5940.0,27.4828,15.0
252,1034.7419,30.0,42.5078,22.0435,2000.0,9.2592,6.8115,5880.0,27.2396,15.0
253,1038.801,30.0,42.2108,21.9305,2000.0,9.2856,6.8106,5940.0,27.2396,15.0
254,1042.8609,30.0,42.4969,21.8308,2000.0,9.2732,6.8289,5940.0,27.2396,15.0
255,1046.921,30.0,42.4156,22.1129,2000.0,9.2805,6.932,5880.0,26.7531,15.0
256,1050.9809,30.0,42.274,22.0743,2000.0,9.3186,6.8669,5880.0,27.2396,15.0
257,1055.04,30.0,42.2363,22.0656,2000.0,9.3265,6.8836,5940.0,27.726,15.0
258,1059.0989,30.0,42.4304,22.014,2000.0,9.3405,6.8422,5880.0,27.2396,15.0
259,1063.1579,30.0,42.3639,21.9654,2000.0,9.2803,6.8689,5940.0,27.2396,15.0
260,1067.217,30.0,42.1866,22.1556,2000.0,9.282,6.9229,5760.0,27.2396,15.0
261,1071.2769,30.0,42.1189,21.9479,2000.0,9.2936,6.8767,5760.0,27.4828,15.0
262,1075.337,30.0,41.9876,22.0323,2000.0,9.2452,6.9114,5760.0,27.726,15.0
263,1079.3969,30.0,42.0839,21.8771,2000.0,9.2506,7.0019,5760.0,27.726,15.0
264,1083.456,30.0,42.0663,21.9889,2000.0,9.3349,6.9333,5760.0,27.2396,15.0
265,1087.515,30.0,41.8888,21.9254,2000.0,9.297,6.9657,5760.0,27.2396,15.0
266,1091.5739,30.0,41.9403,21.8631,2000.0,9.283,6.8305,5760.0,27.2396,15.0
267,1095.633,30.0,41.8972,21.9403,2000.0,9.256,6.9538,5760.0,27.2396,15.0
268,1099.6929,30.0,41.9566,22.1077,2000.0,9.3608,7.0055,5760.0,26.9964,15.0
269,1103.753,30.0,41.728,21.8231,2000.0,9.3103,6.9402,5760.0,27.2396,15.0
270,1107.8129,30.0,41.7925,21.9207,2000.0,9.2954,6.9708,5760.0,27.4828,15.0
271,1111.8719,30.0,41.9122,21.9144,2000.0,9.2834,6.8947,5760.0,27.2396,15.0
