,Time (sec),PT1 (psi),PT2 (psi),V (V),I (A)
0,0.0,-0.3562,-0.4008,0.2107,0.0233
1,0.466,-0.3603,-0.4073,0.2117,0.0231
2,0.699,-0.3722,-0.3953,0.206,0.0273
3,0.932,-0.3603,-0.2444,0.2054,0.0238
4,1.165,-0.3788,-0.3047,0.2048,0.0247
5,1.398,-0.4177,-0.2639,0.2097,0.0256
6,1.631,-0.3696,-0.3812,0.2078,0.0254
7,1.864,-0.3837,-0.3633,0.2105,0.0238
8,2.097,-0.3656,-0.2444,0.2117,0.0259
9,2.33,-0.3656,-0.356,0.2054,0.0257
10,2.563,-0.4382,-0.4448,0.2078,0.0248
11,2.796,-0.3796,-0.3268,0.207,0.0226
12,3.03,-0.3629,-0.1939,0.2101,0.0233
13,3.263,-0.3672,-0.3276,0.2146,0.0243
14,3.496,-0.3658,-0.3438,0.2136,0.0244
15,3.729,-0.3656,-0.1889,0.2107,0.0259
16,3.962,-0.3584,-0.3112,0.207,0.0229
17,4.195,-0.3771,-0.2656,0.2113,0.0263
18,4.428,-0.3492,-0.3877,0.2117,0.024
19,4.661,-0.3662,-0.3633,0.2078,0.0265
20,4.894,-0.3689,-0.3979,0.2097,0.0252
21,5.127,-0.3705,-0.3656,0.2093,0.027
22,5.36,-0.3573,-0.4052,0.2124,0.0243
23,5.593,-0.3606,-0.392,0.212,0.0256
24,5.826,-0.3705,-0.3833,0.2136,0.024
25,6.06,-0.3491,-0.3584,0.2093,0.0232
26,6.293,-0.4019,-0.3812,0.2087,0.0258
27,6.526,-0.3381,-0.334,0.2089,0.0224
28,6.759,-0.3623,-0.3408,0.2094,0.0257
29,6.992,-0.3621,-0.3356,0.2093,0.0239
30,7.225,-0.3562,-0.1841,0.2057,0.0251
31,7.458,-0.3843,-0.3829,0.2098,0.0237
32,7.691,-0.4019,-0.4529,0.2082,0.0244
33,7.924,-0.4201,-0.4381,0.2097,0.0262
34,8.157,-0.359,-0.3986,0.2132,0.0233
35,8.39,-0.3392,-0.3633,0.2105,0.0239
36,8.623,-0.3478,-0.3486,0.2058,0.0243
37,8.856,-0.3629,-0.395,0.2105,0.0236
38,9.09,-0.4131,-0.2525,0.2089,0.0239
39,9.323,-0.3639,-0.3014,0.2101,0.0247
40,9.558,-0.3696,-0.2232,0.2113,0.0254
41,9.791,-0.3713,-0.2167,0.2227,0.0515
42,10.024,-0.3066,-0.2313,0.2214,0.0456
43,10.257,-0.2632,-0.1955,0.2214,0.0443
44,10.49,-0.3307,-0.2542,0.2078,0.0513
45,10.723,-0.2156,-0.1825,0.2257,0.0551
46,10.956,-0.1918,-0.1857,0.2524,0.0569
47,11.189,-0.1486,-0.347,0.2342,0.0579
48,11.422,-0.217,-0.1098,0.2148,0.0612
49,11.655,-0.0337,-0.0552,0.2198,0.0583
50,11.888,0.0405,-0.1262,0.24,0.0558
51,12.121,-0.0348,-0.0896,0.2353,0.056
52,12.354,0.3887,-0.0715,0.2311,0.0594
53,12.588,0.3184,0.1466,0.2159,0.0592
54,12.821,0.5427,0.2069,0.221,0.0687
55,13.054,0.6321,0.3633,0.2488,0.0701
56,13.287,0.7201,0.4806,0.237,0.0852
57,13.52,0.7524,0.7462,0.2334,0.0726
58,13.753,1.0247,0.9983,0.2193,0.0857
59,13.986,1.3596,1.1437,0.2425,0.0792
60,14.219,1.6574,1.3066,0.2299,0.0804
61,14.452,2.0156,1.6697,0.2398,0.0874
62,14.685,2.101,1.7775,0.2472,0.0832
63,14.918,2.3853,1.9984,0.2408,0.0814
64,15.151,2.5703,2.283,0.2598,0.0845
65,15.384,2.9128,2.5,0.2462,0.0948
66,15.618,3.0491,2.5855,0.2575,0.0897
67,15.851,3.1655,2.7599,0.2559,0.1091
68,16.086,3.5171,2.8967,0.2315,0.1567
69,16.319,3.6878,3.172,0.2596,0.1524
70,16.552,4.0435,3.379,0.2563,0.188
71,16.785,4.3808,3.638,0.2817,0.1898
72,17.018,4.662,3.7895,0.2761,0.2022
73,17.251,4.7339,4.0583,0.2752,0.2049
74,17.484,5.1864,4.3585,0.2653,0.2393
75,17.717,5.6267,4.8192,0.2649,0.2612
76,17.95,6.0395,5.1061,0.2594,0.2911
77,18.183,6.5903,5.6484,0.2458,0.343
78,18.416,7.0154,6.0487,0.2524,0.3494
79,18.649,7.2099,6.2672,0.2478,0.3737
80,18.882,8.0239,6.7934,0.263,0.4454
81,19.116,8.7656,7.4824,0.289,0.4835
82,19.349,9.0246,7.7853,0.2604,0.5273
83,19.582,9.11,7.8021,0.2453,0.5347
84,19.815,9.0754,7.8422,0.2452,0.5381
85,20.048,9.0756,7.7485,0.2429,0.5087
86,20.281,9.0651,7.8372,0.2583,0.5255
87,20.514,9.0585,7.8724,0.2835,0.5475
88,20.747,9.0926,7.8317,0.2559,0.5269
89,20.98,9.0857,7.8634,0.2847,0.5373
90,21.213,9.0944,7.8305,0.2933,0.5573
91,21.446,9.0565,7.8615,0.2804,0.5376
92,21.679,9.0582,7.8945,0.2626,0.5351
93,21.912,9.1959,7.8747,0.2594,0.5407
94,22.146,9.2114,7.8841,0.2571,0.5334
95,22.379,9.2699,7.8489,0.2657,0.5439
96,22.614,9.1939,7.8288,0.2531,0.5174
97,22.847,9.2372,7.9946,0.2609,0.5368
98,23.08,9.2627,7.9301,0.3173,0.5123
99,23.313,9.2389,7.9494,0.2666,0.5341
100,23.546,9.2742,7.8891,0.248,0.5342
101,23.779,9.251,7.8741,0.2374,0.5411
102,24.012,9.2074,7.8657,0.2563,0.5371
103,24.245,9.2375,7.8389,0.2524,0.5424
104,24.478,9.1752,7.854,0.2586,0.5416
105,24.711,9.127,7.8657,0.2445,0.5196
106,24.944,9.2251,7.8446,0.2874,0.5387
107,25.177,9.2733,7.8911,0.2699,0.5364
108,25.41,9.1683,7.8389,0.2594,0.5415
109,25.644,9.2288,7.8489,0.3224,0.5141
110,25.877,9.2389,7.9845,0.2522,0.5321
111,26.11,9.2379,7.8841,0.2689,0.5389
112,26.343,9.1219,7.8539,0.2691,0.5517
113,26.576,9.236,7.8657,0.285,0.5287
114,26.809,9.2234,7.8843,0.2548,0.5303
115,27.042,9.1883,7.8928,0.2509,0.5272
116,27.275,9.1374,7.8894,0.2528,0.5272
117,27.508,9.1666,7.884,0.2559,0.522
118,27.741,9.22,7.8809,0.2961,0.5324
119,27.974,9.1752,7.8502,0.2711,0.531
120,28.207,9.1305,7.8996,0.2381,0.5232
121,28.44,9.1363,7.8803,0.2649,0.533
122,28.674,9.2716,8.0682,0.2689,0.5391
123,28.907,9.6146,8.3143,0.239,0.5733
124,29.142,9.6692,8.3815,0.2501,0.5762
125,29.375,9.7105,8.4613,0.2817,0.587
126,29.608,9.8909,8.4324,0.2431,0.5683
127,29.841,9.781,8.4324,0.2478,0.5861
128,30.074,9.7114,8.4314,0.2555,0.5754
129,30.307,9.8705,8.4274,0.237,0.5961
130,30.54,9.6732,8.4647,0.3002,0.5825
131,30.773,9.855,8.4291,0.2687,0.6019
132,31.006,9.8636,8.4503,0.2807,0.5942
133,31.239,9.7053,8.424,0.2454,0.5714
134,31.472,9.855,8.4596,0.2709,0.595
135,31.705,9.8929,8.4562,0.2516,0.5703
136,31.938,9.8,8.4518,0.2925,0.5916
137,32.172,9.9067,8.4197,0.2535,0.5746
138,32.405,9.9166,8.4833,0.2622,0.6026
139,32.638,9.9157,8.5302,0.2606,0.6007
140,32.871,9.917,8.4834,0.2461,0.6072
141,33.104,9.8126,8.4883,0.2571,0.5911
142,33.337,9.8688,8.4681,0.2661,0.5892
143,33.57,9.9119,8.4783,0.2738,0.6062
144,33.803,9.6933,8.4443,0.2893,0.5892
145,34.036,9.8843,8.5382,0.2528,0.5791
146,34.269,9.855,8.4884,0.2901,0.5735
147,34.502,9.8481,8.4894,0.2668,0.6069
148,34.735,9.917,8.4867,0.273,0.5871
149,34.968,9.7948,8.4461,0.2443,0.6069
150,35.202,9.8602,8.4647,0.2524,0.4797
151,35.435,9.7793,8.4398,1.6179,0.3286
152,35.67,9.8516,8.4579,2.8776,0.3301
153,35.903,9.9101,8.4324,3.4147,0.3325
154,36.136,9.9195,8.4291,3.5099,0.3266
155,36.369,9.7879,8.3578,3.793,0.3274
156,36.602,9.9195,8.3461,3.868,0.3367
157,36.835,9.769,8.2678,3.933,0.3343
158,37.068,9.7859,8.4749,3.9943,0.342
159,37.301,9.9221,8.3159,3.9818,0.3381
160,37.534,9.7948,8.2893,3.9247,0.3235
161,37.767,9.8083,8.2942,4.0625,0.3384
162,38.0,9.8602,8.2782,3.9216,0.3249
163,38.233,9.8051,8.3136,3.9943,0.3324
164,38.466,9.9325,8.292,3.9438,0.3107
165,38.7,9.8636,8.4104,3.9978,0.3376
166,38.933,9.886,8.3595,4.0178,0.3301
167,39.166,9.887,8.3461,3.9621,0.3393
168,39.399,9.8894,8.2763,3.9166,0.3178
169,39.632,9.8183,8.3136,3.8898,0.3174
170,39.865,9.8843,8.2899,3.9778,0.3265
171,40.098,9.8489,8.3612,3.9384,0.3243
172,40.331,9.8619,8.4223,3.9399,0.3333
173,40.564,9.8485,8.2911,4.0692,0.3259
174,40.797,9.7483,8.2774,4.0483,0.3295
175,41.03,9.898,8.2882,4.0005,0.3291
176,41.263,9.8757,8.2473,4.0603,0.3249
177,41.496,9.7053,8.3615,3.9644,0.316
178,41.73,9.8808,8.3136,3.9178,0.3301
179,41.963,9.7208,8.3544,3.944,0.3345
180,42.198,9.8206,8.3442,3.8556,0.3251
181,42.431,9.8189,8.4766,3.9678,0.3175
182,42.664,9.8183,8.4113,3.9547,0.3273
183,42.897,9.8808,8.2627,4.0543,0.3219
184,43.13,9.8784,8.3143,3.9974,0.313
185,43.363,9.8309,8.2875,3.9769,0.325
186,43.596,9.9386,8.4851,3.9337,0.3086
187,43.829,9.8956,8.2925,4.0318,0.3168
188,44.062,9.8395,8.4448,3.9365,0.3169
189,44.295,9.8826,8.3779,3.9369,0.3404
190,44.528,9.7449,8.2411,4.1015,0.314
191,44.761,9.9118,8.2865,4.0797,0.3278
192,44.994,9.8791,8.2581,3.964,0.3186
193,45.228,9.7294,8.3001,4.0417,0.3316
194,45.461,9.8447,8.373,4.0195,0.3316
195,45.694,9.826,8.3544,4.018,0.3284
196,45.927,9.8826,8.3728,4.0443,0.3189
197,46.16,9.9042,8.2841,4.0578,0.3415
198,46.393,9.8344,8.3255,3.9343,0.3118
199,46.626,9.7992,8.2916,3.931,0.3215
200,46.859,9.8826,8.2882,3.9531,0.3305
201,47.092,9.7449,8.2657,3.8704,0.3304
202,47.325,9.8929,8.3661,3.957,0.3349
203,47.558,9.8464,8.2675,4.002,0.3337
204,47.791,9.8051,8.408,3.8901,0.3017
205,48.024,9.8533,8.4442,3.87,0.3183
206,48.258,10.2715,8.8867,4.1243,0.3281
207,48.491,10.8893,9.2386,4.4569,0.3292
208,48.726,11.2729,9.4643,4.7769,0.3117
209,48.959,11.4928,9.7273,5.1063,0.3404
210,49.192,11.7123,9.8529,5.3129,0.3172
211,49.425,12.187,10.2789,5.6699,0.3325
212,49.658,12.5277,10.5317,5.9037,0.3145
213,49.891,12.5227,10.5165,6.1087,0.3231
214,50.124,12.776,10.8745,6.2509,0.3086
215,50.357,13.1092,11.0694,6.4878,0.3138
216,50.59,13.1878,11.0904,6.7452,0.3174
217,50.823,13.2419,11.1664,6.7469,0.3192
218,51.056,13.3972,11.1757,6.7958,0.3114
219,51.289,14.1757,11.9539,7.0894,0.3188
220,51.522,15.0276,12.7585,7.5506,0.34
221,51.756,15.4797,13.0129,8.044,0.3325
222,51.989,15.6822,13.1792,8.3096,0.3188
223,52.222,15.7745,13.1826,8.5184,0.3158
224,52.455,15.8567,13.1299,8.5321,0.3139
225,52.688,15.8152,13.2284,8.6287,0.3205
226,52.921,15.8463,13.2335,8.5298,0.3256
227,53.154,15.8773,13.2063,8.5134,0.304
228,53.387,15.8777,13.3659,8.6178,0.3126
229,53.62,15.7921,13.2905,8.5886,0.3379
230,53.853,15.7276,13.0706,8.504,0.326
231,54.086,15.7625,13.2172,8.6018,0.311
232,54.319,15.8916,13.2069,8.6101,0.315
233,54.552,15.8759,13.2454,8.5939,0.3217
234,54.786,15.9527,13.3625,8.6258,0.3241
235,55.019,15.8288,13.2997,8.5203,0.326
236,55.254,15.9039,13.2759,8.5555,0.3168
237,55.487,15.9126,13.1317,8.5568,0.3299
238,55.72,15.8385,13.2725,8.5711,0.3267
239,55.953,15.8794,13.3302,8.6217,0.336
240,56.186,15.821,13.3455,8.6557,0.3331
241,56.419,15.8899,13.1877,8.5993,0.317
242,56.652,15.8947,13.1877,8.6335,0.3172
243,56.885,15.8812,13.2708,8.4422,0.3272
244,57.118,15.848,13.3788,8.5084,0.338
245,57.351,15.8899,13.3692,8.6385,0.3097
246,57.584,15.8463,13.2905,8.5715,0.3182
247,57.817,15.7974,13.1978,8.5013,0.3172
248,58.05,15.8742,13.3412,8.5703,0.3305
249,58.284,15.9842,13.2555,8.5104,0.3305
250,58.517,15.8707,13.2182,8.6574,0.3383
251,58.75,15.8618,13.2946,8.5268,0.3338
252,58.983,15.9126,13.2571,8.5876,0.3271
253,59.216,15.8734,13.2046,8.536,0.308
254,59.449,15.7502,13.2029,8.6419,0.3296
255,59.682,15.8288,13.1724,8.6044,0.3152
256,59.915,15.8218,13.2691,8.6078,0.3235
257,60.148,15.8567,13.2378,8.534,0.3172
258,60.381,15.8567,13.2538,8.5831,0.3285
259,60.614,15.759,13.2679,8.6768,0.325
260,60.847,15.8218,13.1571,8.5344,0.3134
261,61.08,15.8009,13.142,8.6894,0.3197
262,61.314,15.8288,13.3692,8.6577,0.3235
263,61.547,15.7974,13.1995,8.6445,0.327
264,61.782,15.8969,13.2437,8.5519,0.3356
265,62.015,15.9213,13.4032,8.627,0.315
266,62.248,15.9393,13.3642,8.5292,0.3208
267,62.481,15.848,13.1537,8.6287,0.321
268,62.714,15.7725,13.2199,8.6174,0.3193
269,62.947,15.8463,13.1911,8.6576,0.3251
270,63.18,15.9006,13.1673,8.7147,0.3314
271,63.413,15.9039,13.32,8.6429,0.3334
272,63.646,15.9143,13.1532,8.6728,0.3104
273,63.879,15.8864,13.1944,8.6938,0.3272
274,64.112,15.8689,13.3018,8.5471,0.3181
275,64.345,15.8689,13.2046,8.6457,0.3148
276,64.578,15.8742,13.1927,8.5457,0.3377
277,64.812,15.8463,13.2386,8.5767,0.3411
278,65.045,15.8585,13.1792,8.6609,0.3152
279,65.278,15.8831,13.3608,8.5858,0.3152
280,65.511,15.8829,13.3506,8.694,0.3154
281,65.744,15.8501,13.2946,8.6317,0.3272
282,65.977,15.7974,13.2046,8.71,0.32
283,66.21,15.823,13.2759,8.591,0.3299
284,66.443,15.8253,13.3234,8.5886,0.3274
285,66.676,15.7991,13.2083,8.5478,0.3205
286,66.909,15.8183,13.2267,8.6283,0.3102
287,67.142,15.9039,13.3206,8.5805,0.3158
288,67.375,15.8707,13.225,8.6122,0.3211
289,67.608,15.9039,13.3769,8.6056,0.3215
290,67.842,15.8515,13.1877,8.6561,0.3191
291,68.075,15.7974,13.2046,8.6154,0.321
292,68.31,15.8497,13.3726,8.5348,0.3159
293,68.543,15.9056,13.2929,8.657,0.3124
294,68.776,15.9316,13.3642,8.5449,0.3119
295,69.009,15.8428,13.2606,8.6089,0.3292
296,69.242,15.7435,13.1656,8.7191,0.33
297,69.475,15.8515,13.2284,8.6616,0.3368
298,69.708,15.8676,13.2097,8.5934,0.3289
299,69.941,15.8183,13.1418,8.6076,0.3165
300,70.174,15.8201,13.2491,8.6522,0.3222
301,70.407,15.7991,13.2623,8.4996,0.3102
302,70.64,15.8899,13.2322,8.6445,0.3174
303,70.873,15.9108,13.2165,8.6074,0.3191
304,71.106,15.9004,13.2942,8.6849,0.3219
305,71.34,15.8847,13.2691,8.7343,0.3151
306,71.573,15.8742,13.2606,8.6737,0.3117
307,71.806,15.7415,13.169,8.5942,0.3274
308,72.039,15.8271,13.074,8.6605,0.328
309,72.272,15.8637,13.2131,8.6501,0.3229
310,72.505,15.9562,13.2454,8.5894,0.3215
311,72.738,15.9374,13.3115,8.6565,0.3137
312,72.971,15.8742,13.2284,8.6481,0.3363
313,73.204,15.862,13.3412,8.6305,0.3237
314,73.437,15.8113,13.3285,8.621,0.3218
315,73.67,15.8655,13.236,8.7027,0.3165
316,73.903,15.8829,13.2182,8.4785,0.4048
317,74.136,15.9213,13.3863,8.0236,0.3996
318,74.37,15.8393,13.3387,7.8644,0.4108
319,74.603,15.8689,13.3743,7.6809,0.4107
320,74.838,15.8951,13.3709,7.7802,0.4155
321,75.071,15.8689,13.1818,7.8488,0.4114
322,75.304,15.8559,13.1418,7.8528,0.4257
323,75.537,15.7031,13.0909,7.8766,0.401
324,75.77,15.726,13.0587,7.7781,0.4035
325,76.003,15.6647,13.2623,7.8568,0.4297
326,76.236,15.7764,13.2403,7.7846,0.4107
327,76.469,15.7869,13.1734,7.8145,0.4058
328,76.702,15.6944,13.3509,7.8568,0.4174
329,76.935,15.7956,13.2199,7.791,0.414
330,77.168,15.6699,13.2416,7.8839,0.3998
331,77.401,15.8026,13.2233,7.7919,0.414
332,77.634,15.7921,13.2472,7.793,0.3974
333,77.868,15.7974,13.2063,7.8444,0.4074
334,78.101,15.7153,13.2572,7.8251,0.4175
335,78.334,15.8463,13.3031,7.7899,0.4242
336,78.567,15.8061,13.3642,7.7765,0.413
337,78.8,15.8618,13.2572,7.8424,0.4171
338,79.033,15.8148,13.3268,7.7716,0.3993
339,79.266,15.8094,13.3387,7.7211,0.4097
340,79.499,15.7607,13.2504,7.7898,0.411
341,79.732,15.7632,13.345,7.8193,0.4182
342,79.965,15.8044,13.2912,7.8317,0.4206
343,80.198,15.7398,13.3168,7.7852,0.4062
344,80.431,15.8044,13.2674,7.8277,0.4016
345,80.664,15.8218,13.2792,7.7834,0.4031
346,80.898,16.2547,13.7104,7.9095,0.4009
347,81.131,16.4136,13.707,8.1234,0.4044
348,81.366,16.5113,13.7952,8.3065,0.4143
349,81.599,16.9076,14.1872,8.3524,0.4025
350,81.832,17.1729,14.3739,8.5907,0.4114
351,82.065,17.4295,14.5199,8.7475,0.4041
352,82.298,17.5104,14.8135,8.8269,0.4201
353,82.531,17.8292,14.9407,8.9112,0.4169
354,82.764,18.0321,15.1257,9.0175,0.4165
355,82.997,18.2447,15.3226,9.0503,0.3973
356,83.23,18.3686,15.332,9.2416,0.4174
357,83.463,18.4908,15.4889,9.3517,0.4051
358,83.696,18.8347,15.8001,9.5702,0.4027
359,83.929,18.9638,15.8945,9.6478,0.402
360,84.162,19.2344,16.099,9.7809,0.4158
361,84.396,19.4229,16.1541,9.8586,0.4126
362,84.629,19.4037,16.2475,9.9819,0.4096
363,84.862,19.6426,16.4759,9.9614,0.4061
364,85.095,19.7057,16.5275,10.1746,0.4093
365,85.328,19.8145,16.5428,10.0443,0.4033
366,85.561,19.7755,16.4851,10.1759,0.4111
367,85.794,19.7904,16.5292,10.2223,0.3989
368,86.027,19.8069,16.4511,10.2389,0.4061
369,86.26,19.7877,16.4354,10.0795,0.4081
370,86.493,19.8755,16.5513,10.1204,0.4264
371,86.726,19.8139,16.584,10.2304,0.4014
372,86.959,19.8034,16.4902,10.2745,0.4111
373,87.192,19.8803,16.6159,10.1973,0.411
374,87.426,19.7947,16.5869,10.2814,0.4207
375,87.659,19.7947,16.5021,10.2377,0.4087
376,87.894,19.8122,16.536,10.2535,0.4077
377,88.127,19.8153,16.4993,10.1719,0.4119
378,88.36,19.8824,16.6242,10.1305,0.4057
379,88.593,19.8261,16.5784,10.1535,0.4044
380,88.826,19.8436,16.575,10.247,0.4099
381,89.059,19.7825,16.5156,10.1445,0.4068
382,89.292,19.8223,16.5835,10.1455,0.4125
383,89.525,19.8294,16.6361,10.0989,0.4056
384,89.758,19.8698,16.5915,10.2426,0.3993
385,89.991,19.9134,16.5581,10.2652,0.4248
386,90.224,19.8331,16.5106,10.1989,0.4197
387,90.457,19.7143,16.4876,10.0953,0.4042
388,90.69,19.8698,16.5069,10.1726,0.4088
389,90.924,19.8453,16.6412,10.1977,0.41
390,91.157,19.9204,16.6208,10.227,0.4208
391,91.39,19.6702,16.385,10.2365,0.4108
392,91.623,19.7657,16.4698,10.1136,0.4313
393,91.856,19.7549,16.4562,10.1487,0.402
394,92.089,19.7912,16.4715,10.2194,0.4078
395,92.322,19.766,16.3052,10.2887,0.4171
396,92.555,19.9029,16.5377,10.2636,0.4185
397,92.788,19.8017,16.599,10.2984,0.4181
398,93.021,19.8401,16.4477,10.281,0.4092
399,93.254,19.7912,16.5539,10.1714,0.4067
400,93.487,19.7958,16.5043,10.2308,0.3976
401,93.72,19.7965,16.4467,10.1835,0.4034
402,93.954,19.868,16.5784,10.2689,0.4137
403,94.187,19.7947,16.5326,10.3251,0.4037
404,94.422,19.7947,16.5869,10.2543,0.4004
405,94.655,19.8907,16.5241,10.3193,0.41
406,94.888,19.7389,16.4511,10.2515,0.4059
407,95.121,19.8122,16.5054,10.1741,0.4136
408,95.354,20.0317,16.6141,10.0856,0.4025
409,95.587,19.8052,16.5462,10.1876,0.404
410,95.82,19.7156,16.5479,10.2203,0.4198
411,96.053,19.7755,16.5547,10.2074,0.5069
412,96.286,19.7109,16.5539,9.7449,0.4965
413,96.519,19.7161,16.4457,9.5414,0.5016
414,96.752,19.8139,16.5877,9.5568,0.4944
415,96.985,19.8052,16.4817,9.4779,0.501
416,97.218,19.7528,16.458,9.416,0.4971
417,97.452,19.7406,16.5631,9.3343,0.5036
418,97.685,19.6882,16.4851,9.488,0.4976
419,97.918,19.7641,16.5852,9.2627,0.5161
420,98.151,19.8872,16.6497,9.436,0.5162
421,98.384,19.8261,16.575,9.5176,0.5106
422,98.617,19.7947,16.5631,9.3414,0.5034
423,98.85,19.8067,16.5004,9.3545,0.5005
424,99.083,19.779,16.5292,9.4241,0.5069
425,99.316,19.8471,16.5633,9.3836,0.4965
426,99.549,19.8419,16.5682,9.3998,0.5148
427,99.782,19.7232,16.4994,9.5402,0.5176
428,100.015,19.875,16.6684,9.5103,0.4962
429,100.248,19.7546,16.5727,9.397,0.485
430,100.482,19.7745,16.5763,9.3812,0.4909
431,100.715,19.779,16.6752,9.4168,0.5528
432,100.95,19.765,16.6208,8.9969,0.5872
433,101.183,19.7834,16.6599,8.713,0.5914
434,101.416,19.747,16.7023,8.551,0.6023
435,101.649,19.7301,16.7125,8.6145,0.5772
436,101.882,19.7175,16.5801,8.7187,0.582
437,102.115,19.683,16.5479,8.5863,0.5986
438,102.348,19.6749,16.5886,8.6165,0.5877
439,102.581,19.7668,16.6989,8.6845,0.5895
440,102.814,19.7319,16.5802,8.6048,0.5845
441,103.047,19.6725,16.441,8.7375,0.5944
442,103.28,19.7301,16.5933,8.6481,0.5996
443,103.513,19.7389,16.631,8.5922,0.5956
444,103.746,19.6987,16.6084,8.6865,0.5936
445,103.98,19.7127,16.5496,8.6643,0.5954
446,104.213,19.6568,16.5343,8.7427,0.6063
447,104.446,19.6787,16.5564,8.7954,0.5941
448,104.679,19.663,16.5077,8.706,0.5782
449,104.912,19.6632,16.5088,8.7209,0.591
450,105.145,19.7266,16.575,8.6257,0.5939
451,105.378,19.7718,16.5513,8.6813,0.5899
452,105.611,19.7002,16.4715,8.6274,0.6103
453,105.844,19.7621,16.6389,8.5413,0.6164
454,106.077,19.81,16.7108,8.7707,0.5892
455,106.31,20.0583,16.7945,8.8362,0.5855
456,106.543,20.4772,17.2301,8.8941,0.5837
457,106.776,20.7751,17.3641,9.2744,0.5747
458,107.01,21.0952,17.7833,9.276,0.5829
459,107.243,21.5508,18.1177,9.6397,0.5872
460,107.478,21.7455,18.1414,9.6227,0.5939
461,107.711,21.6642,17.9055,9.7363,0.5996
462,107.944,21.6454,18.1397,9.8942,0.5875
463,108.177,21.7614,18.1533,9.851,0.5819
464,108.41,21.7553,18.2076,9.8938,0.5925
465,108.643,21.8021,18.0685,9.8989,0.5893
466,108.876,21.7237,18.1889,9.8813,0.5857
467,109.109,21.7794,18.0345,9.8404,0.603
468,109.342,21.7899,18.0352,9.8849,0.5955
469,109.575,21.7882,18.0973,9.8558,0.5757
470,109.808,21.8091,18.0916,9.8271,0.5948
471,110.041,21.6956,18.0413,9.8461,0.589
472,110.274,21.7515,18.1762,9.662,0.5862
473,110.508,21.7672,18.2263,9.7231,0.5836
474,110.741,21.6782,18.2619,9.7502,0.5946
475,110.974,21.754,18.1974,9.7668,0.5855
476,111.207,21.8597,18.0141,9.7838,0.5912
477,111.44,21.8617,17.987,9.8149,0.6032
478,111.673,21.8842,18.0668,9.8299,0.6013
479,111.906,21.7572,18.0583,9.708,0.5933
480,112.139,21.7567,18.1703,9.8016,0.6011
481,112.372,21.8411,17.9256,9.6778,0.5868
482,112.605,21.8301,17.97,9.772,0.5891
483,112.838,21.762,18.148,9.7016,0.5992
484,113.071,21.7969,18.1007,9.7223,0.5966
485,113.304,21.7498,18.0371,9.7615,0.5935
486,113.538,21.8353,17.9581,9.7627,0.5876
487,113.771,21.7384,17.7698,9.7053,0.6031
488,114.006,21.6499,17.7898,9.7089,0.6038
489,114.239,21.6136,17.7104,9.6883,0.6063
490,114.472,21.6435,17.9293,9.6147,0.6024
491,114.705,21.7455,17.8003,9.7564,0.5891
492,114.938,21.6881,17.9547,9.6677,0.5886
493,115.171,21.8039,17.914,9.6175,0.5921
494,115.404,21.7907,18.0091,9.747,0.598
495,115.637,21.755,17.8886,9.6296,0.5792
496,115.87,21.666,18.0014,9.5621,0.5928
497,116.103,21.7916,17.9055,9.747,0.5975
498,116.336,21.8772,17.945,9.7947,0.6161
499,116.569,22.2909,18.4656,9.9157,0.5853
500,116.802,22.6662,18.6725,9.9921,0.5839
