,Time (sec),PT1 (psi),PT2 (psi),torque (mNm),V (V),I (A),Speed (RPM),Flow Rate (GPM),DP (psi)
0,0.0,34.5471,29.0452,100.5148,8.4474,1.9787,2691.6291,29.6984,5.501899999999999
1,0.0,34.4045,29.2489,97.646,8.468900000000001,,2514.458,26.1329,5.1556
2,0.258,34.4656,29.2658,91.3653,8.4765,2.052,2630.041,27.6271,5.199800000000003
3,0.507,34.348,28.9569,101.1665,8.5553,1.9346999999999999,2613.6958,28.1624,5.391099999999998
4,0.757,34.4016,28.8144,91.3131,8.434800000000001,2.0436,2633.8894,28.6985,5.587200000000003
5,1.005,34.2131,28.7668,101.9828,8.6088,1.9721,2590.3007,28.4545,5.446299999999997
6,1.257,34.5889,28.889,90.9743,8.5408,2.0425,2613.468,28.8392,5.699900000000003
7,1.506,34.469,28.8924,100.6191,8.6797,1.8431,2624.2893,28.9238,5.576600000000003
8,1.756,34.5323,29.0904,90.6713,8.5687,2.0816,2623.0654,29.7687,5.4419
9,2.003,34.3673,28.8955,100.9058,8.456100000000001,1.9948,2596.3535,30.5848,5.471800000000002
10,2.252,34.3667,28.8646,93.1639,8.4907,2.0775,2571.3552,26.8345,5.502100000000002
11,2.507,34.186,28.5401,99.0811,8.7371,1.7869,2693.2399,27.6711,5.645900000000001
12,2.756,34.2585,28.9187,89.9608,8.4411,2.1335,2642.008,27.4442,5.339799999999997
13,3.007,34.2959,28.5632,100.2542,8.5622,2.0632,2691.79,27.5063,5.732700000000005
14,3.257,34.1546,28.682,91.9127,8.586,1.9068999999999998,2682.8032,28.7234,5.4726000000000035
15,3.504,34.4196,29.0519,100.5148,8.578100000000001,2.0679,2631.1943,29.2156,5.367700000000003
16,3.755,34.61,29.0418,90.9221,8.625300000000001,1.9935999999999998,2643.56,28.9651,5.568200000000001
17,4.004,34.4632,28.5639,99.8124,8.507200000000001,1.9821,2653.5366,28.7914,5.8993
18,4.254,34.4156,29.0045,90.7486,8.5222,1.8731,2641.7751,28.8187,5.411099999999998
19,4.504,34.3727,28.7833,100.9031,8.528500000000001,2.0046,2651.3476,28.0304,5.589400000000001
20,4.756,34.5471,29.035,91.3913,8.554400000000001,1.9855999999999998,2684.0832,29.1363,5.5121
21,5.004,34.3367,28.9319,100.3144,8.6041,1.8778,2665.403,29.8028,5.404800000000002
22,5.253,34.5261,28.7872,91.913,8.4277,2.0099,2658.2392,29.8564,5.738900000000001
23,5.502,34.3589,29.0044,98.6901,8.428500000000001,2.0068,2631.7329,27.1359,5.354499999999998
24,5.757,34.3885,28.8427,92.4943,8.5191,1.9825,2732.904,26.6444,5.5458
25,6.008,34.44,29.1721,101.349,8.6852,1.9783,2540.0769,28.2038,5.267899999999997
26,6.268,34.4769,29.0655,100.6712,8.501700000000001,1.9253,2743.2331,29.5828,5.4114
27,6.515,34.4138,29.0739,91.1571,8.4695,1.9850999999999999,2685.2045,29.0273,5.339900000000004
28,6.765,34.5573,28.9875,101.37,8.5356,1.984,2694.5302,28.2847,5.569799999999997
29,7.017,34.4271,29.0282,91.4956,8.5321,1.9025999999999998,2520.1613,29.5708,5.398900000000005
30,7.275,34.5142,28.6854,95.1189,8.5411,2.0288,2699.7031,29.113,5.828800000000001
31,7.526,34.2548,28.5389,101.8203,8.7789,2.0298,2736.4772,28.4879,5.715900000000001
32,7.777,34.2887,29.0621,92.0691,8.5364,2.0065,2728.8439,28.7868,5.226599999999998
33,8.026,34.3064,28.6809,101.9524,8.7867,2.0618,2757.6909,25.7003,5.625499999999995
34,8.283,34.5573,28.7139,96.8799,8.5805,1.9822,2656.3562,27.2007,5.843399999999999
35,8.54,34.376,29.1168,93.0755,8.600900000000001,2.0505,2577.0244,28.3484,5.259199999999996
36,8.799,34.2068,28.7193,90.088,8.625300000000001,1.9163999999999999,2743.4006,29.5517,5.487500000000001
37,9.047,34.4952,28.8551,99.9935,8.3947,1.9876999999999998,2745.1579,27.144,5.640099999999997
38,9.3,34.2131,29.0519,91.8345,8.483600000000001,1.9269999999999998,2583.3857,27.7511,5.161199999999997
39,9.561,34.3805,29.1266,91.4435,8.4734,2.0094,2574.9599,30.0458,5.253899999999998
40,9.819,34.452,29.097,94.1058,8.4679,1.9596,2725.8684,27.2821,5.354999999999997
41,10.074,34.3554,28.9365,101.1926,8.7049,1.9846,2613.9995,29.4634,5.418900000000004
42,10.334,34.5165,28.9979,102.2166,8.5222,1.9768,2567.687,27.1662,5.518599999999999
43,10.599,34.3434,28.9739,97.5692,8.653500000000001,1.9730999999999999,2625.3608,29.3142,5.369500000000002
44,10.856,34.4039,28.9253,102.2874,8.6003,2.0755,2534.2119,26.2892,5.4786
45,11.125,34.3536,28.7634,95.0569,8.5442,2.0242,2709.2114,29.4159,5.590199999999999
46,11.38,34.0499,28.7533,101.1949,8.693000000000001,1.9806,2578.3532,27.0194,5.2966000000000015
47,11.646,34.3887,29.064,98.2209,8.660200000000001,2.0555,2660.4394,28.6805,5.3247
48,11.905,34.3643,28.7363,102.0006,8.475800000000001,2.0347,2600.9306,30.078,5.628
49,12.165,34.6171,29.1029,101.8182,8.6978,2.0301,2565.0527,26.701,5.514199999999999
50,12.433,34.2772,28.8144,98.7162,8.5088,2.0329,2709.456,29.1456,5.462800000000001
51,12.689,34.1871,28.6277,101.0362,8.7049,1.9736,2608.9982,26.7853,5.5594
52,12.956,34.3213,29.0177,96.3219,8.5899,1.9566999999999999,2689.2163,28.0089,5.303599999999999
53,13.214,34.4157,28.7932,103.004,8.600900000000001,1.9228999999999998,2655.5722,30.631,5.622500000000002
54,13.472,34.357,28.6039,100.3063,8.642700000000001,1.9207999999999998,2615.8986,26.3652,5.7531
55,13.741,34.2429,29.0375,95.691,8.4907,1.9643,2742.7316,27.0414,5.205399999999997
56,14.001,34.5844,28.9399,99.7589,8.720600000000001,1.9692999999999998,2694.3688,28.9513,5.644500000000001
57,14.259,34.6021,29.035,101.349,8.5568,1.9854999999999998,2634.9689,29.6791,5.5671
58,14.521,34.4796,28.8823,100.5522,8.666300000000001,1.9569999999999999,2614.7587,29.9914,5.597299999999997
59,14.783,34.3039,28.7568,102.1049,8.6556,2.0441,2617.6486,29.9103,5.5471
60,15.045,34.2246,29.0689,102.3805,8.741900000000001,2.0091,2649.4746,27.4524,5.155700000000003
61,15.31,34.3842,28.5964,99.469,8.771,1.9804,2736.2275,28.0325,5.787800000000001
62,15.569,34.4688,29.0961,101.375,8.4624,2.0263,2666.2717,29.6165,5.372700000000002
63,15.831,34.3702,28.9583,102.8771,8.7245,1.8708,2640.9226,27.1582,5.411899999999996
64,16.097,34.262,28.9946,99.1255,8.695400000000001,1.9691999999999998,2538.9304,31.2583,5.267400000000002
65,16.362,34.4191,28.9399,94.9886,8.610700000000001,2.0014,2608.3933,26.9475,5.479199999999999
66,16.63,34.2701,29.0205,93.0075,8.644200000000001,2.0513,2751.7045,28.3374,5.249600000000001
67,16.889,34.4226,29.1463,91.0676,8.5104,1.9367999999999999,2697.3566,28.8871,5.276300000000003
68,17.149,34.5318,28.8721,91.3131,8.7623,1.9786,2702.4592,26.4935,5.659699999999997
69,17.416,34.374,29.0507,95.2419,8.3419,1.9645,2557.4721,27.5083,5.323300000000003
70,17.687,34.5099,29.0655,100.6113,8.459200000000001,1.9578,2741.3115,29.2883,5.444400000000002
71,17.947,34.5233,29.0146,103.0916,8.7379,1.9664,2723.6411,29.8907,5.5086999999999975
72,18.207,34.2223,29.0112,102.3037,8.715100000000001,1.9777,2726.6943,30.6619,5.211099999999998
73,18.466,34.2953,28.9193,99.6807,8.349,2.0140000000000002,2683.9233,25.6371,5.375999999999998
74,18.736,34.5522,29.1164,94.2587,8.5852,1.916,2603.5639,27.2129,5.4358
75,19.006,34.4796,29.0309,93.2604,8.692300000000001,1.9610999999999998,2577.0981,30.7939,5.448699999999999
76,19.272,34.1596,28.9385,102.5663,8.5608,1.9470999999999998,2699.2172,27.0635,5.221099999999996
77,19.542,34.3061,28.6277,98.4034,8.5364,1.9401,2617.1921,30.3255,5.6784
78,19.807,34.536,29.2318,94.5715,8.6403,1.9541,2709.1298,26.8701,5.304200000000002
79,20.074,34.3643,28.8313,96.4223,8.6415,1.9517,2636.8991,30.0755,5.533000000000001
80,20.339,34.3566,29.001,102.6247,8.4907,1.9618,2733.0703,30.6233,5.355599999999999
81,20.6,34.2117,28.8734,100.3408,8.4474,1.9757,2741.5622,26.8247,5.3383
82,20.868,34.5397,28.906,97.4128,8.454500000000001,1.9145999999999999,2630.8098,28.9192,5.633700000000005
83,21.136,34.3808,28.8822,92.6426,8.620600000000001,1.9846,2563.153,30.7317,5.4986
84,21.405,34.2896,28.9319,101.8952,8.6167,2.0218,2731.8256,29.7178,5.357700000000001
85,21.668,34.3645,28.7382,100.9058,8.7371,1.9888,2555.4389,26.8286,5.6263000000000005
86,21.946,34.2157,28.8823,95.8759,8.574200000000001,1.9733999999999998,2663.8251,27.2169,5.3333999999999975
87,22.217,34.3249,29.021,99.7067,8.771,2.0118,2637.2854,28.0735,5.303899999999999
88,22.489,34.3981,28.8245,93.19,8.6151,2.0009,2607.3354,26.1817,5.573599999999999
89,0.0,34.4215,28.879,100.3672,8.6828,,2521.7148,26.2571,5.5425
90,0.266,34.3842,28.9253,97.2233,8.6647,2.0268,2683.4431,30.5183,5.4589
91,0.507,34.3735,29.1234,95.4578,8.6875,1.7754999999999999,2749.1828,27.8996,5.2501
92,0.75,34.5267,29.2115,90.486,8.6159,2.0352,2618.8676,26.9555,5.315199999999997
93,1.001,34.3911,28.9286,98.6236,8.6243,1.9604,2678.0136,27.2861,5.462500000000002
94,1.249,34.4987,28.8177,91.0525,8.622200000000001,1.8509,2672.2089,27.0815,5.681000000000001
95,1.499,34.3446,29.0723,99.029,8.6434,1.9174,2673.6379,27.823,5.272300000000001
96,1.746,34.3788,28.9814,90.6449,8.7072,2.1324,2640.9226,28.0973,5.3973999999999975
97,1.995,34.2654,28.8625,100.4106,8.6308,1.9807,2668.5642,27.0956,5.402899999999999
98,2.246,34.3434,29.0276,91.0404,8.6608,1.9654999999999998,2707.3369,27.7934,5.315800000000003
99,2.493,34.3985,28.8064,100.8428,8.710700000000001,2.0162,2669.8308,26.4628,5.5920999999999985
100,2.745,34.5904,28.9946,94.6342,8.526100000000001,2.1441,2736.5605,25.9618,5.595800000000004
101,2.995,34.5915,29.0871,96.3251,8.471,1.9175,2735.4792,26.2665,5.504400000000004
102,3.244,34.4941,28.8328,92.1244,8.599400000000001,2.107,2728.4304,30.3684,5.661300000000004
103,3.487,34.5757,28.9976,101.2824,8.616800000000001,2.043,2594.1083,26.7303,5.578099999999999
104,3.744,34.3941,28.8691,93.8945,8.5065,1.9545,2541.5114,26.6659,5.525000000000002
105,4.004,34.328,28.9741,93.6592,8.8355,2.0474,2747.2526,26.6289,5.353900000000003
106,4.253,34.4033,28.9979,101.2241,8.6332,2.0807,2729.5061,30.3836,5.4054
107,4.497,34.4748,28.9331,93.7895,8.4214,2.1774,2623.1418,27.0114,5.541700000000002
108,4.752,34.5097,28.9908,98.5598,8.785200000000001,2.049,2538.5004,26.4168,5.518900000000002
109,5.014,34.4138,28.6277,98.2991,8.6828,1.9508999999999999,2565.6376,28.5302,5.786100000000001
110,5.271,34.4996,28.9637,102.208,8.7726,2.0028,2699.541,28.2737,5.535900000000002
111,5.521,34.3763,29.0553,91.2871,8.5159,1.9239,2734.8974,28.5458,5.3210000000000015
112,5.769,34.5025,29.0243,101.1665,8.6773,2.0042,2691.3876,27.7426,5.4781999999999975
113,6.022,34.3706,29.0418,90.9221,8.7316,2.0054,2550.7312,29.5613,5.328800000000005
114,6.279,34.4435,28.9979,92.9032,8.5592,2.0302000000000002,2691.468,28.7528,5.445599999999999
115,6.53,34.3231,28.9451,102.5072,8.7261,2.0189,2719.9372,28.479,5.377999999999997
116,6.78,34.3253,28.8483,92.9554,8.6434,1.9670999999999998,2731.5769,28.9146,5.477
117,7.028,34.3074,28.9319,102.187,8.686,1.9955999999999998,2713.3769,28.366,5.375500000000002
118,7.28,34.5199,28.9187,93.5499,8.6096,1.9838,2529.7243,30.5643,5.601199999999999
119,7.536,34.4591,29.1368,92.4702,8.666300000000001,2.0151,2648.4609,26.7794,5.3222999999999985
120,7.793,34.5233,29.1436,99.094,8.789100000000001,2.0268,2574.6652,29.7614,5.3797
121,8.048,34.3574,28.9814,101.7785,8.5198,1.9804,2721.9936,28.7437,5.375999999999998
122,8.299,34.4667,29.0859,90.8945,8.66,2.04,2536.1401,26.532,5.380800000000004
123,8.564,34.6397,29.0904,91.8283,8.598600000000001,1.9848,2578.8703,27.1501,5.549299999999999
124,8.824,34.4337,28.873,92.7208,8.6112,2.0251,2566.2958,27.225,5.560700000000001
125,9.086,34.497,29.1994,90.2222,8.3734,1.8437999999999999,2568.4199,29.7469,5.297599999999999
126,9.345,34.6252,28.8754,93.8938,8.5907,2.0581,2530.0798,29.3119,5.7498000000000005
127,9.606,34.4315,29.1201,92.4414,8.5639,2.007,2751.4521,30.16,5.311399999999999
128,9.854,34.3926,28.811,99.5243,8.4883,1.9198,2718.1298,26.6172,5.581600000000002
129,10.11,34.4453,28.9399,93.3724,8.8474,1.9810999999999999,2639.6059,26.6386,5.505400000000002
130,10.372,34.4249,28.7702,94.0241,8.6765,1.9509999999999998,2650.8791,28.5414,5.654700000000002
131,10.63,34.4185,28.8394,91.094,8.575700000000001,1.9317,2584.6472,30.3431,5.5791
132,10.889,34.3977,28.9128,92.8772,8.582,1.958,2532.1442,26.8879,5.4849
133,11.156,34.469,28.7733,95.7967,8.734900000000001,2.0275,2688.3327,27.5978,5.695700000000002
134,11.414,34.4262,28.7833,91.1567,8.715100000000001,1.9747999999999999,2676.1818,28.1276,5.642900000000001
135,11.673,34.3423,28.9913,93.4623,8.9056,2.0092,2714.6865,27.2068,5.351000000000003
136,11.931,34.5946,28.7965,98.5979,9.215,2.0077,2740.6437,28.5906,5.798099999999998
137,12.185,34.6495,28.8076,92.0016,10.2017,2.0161000000000002,3011.9475,27.4752,5.8419000000000025
138,12.43,34.932,28.3154,94.1284,10.6392,1.9174,3164.7795,30.1925,6.616600000000002
139,12.665,35.1951,28.1973,94.0502,11.689,2.0125,3494.1958,28.6175,6.997799999999998
140,12.893,35.5831,28.1954,100.7107,12.5595,2.0492,3701.571,29.6743,7.387700000000002
141,13.114,35.8539,27.7958,95.927,13.4044,2.0577,3877.1379,26.4053,8.058100000000003
142,13.336,36.3431,27.2802,96.5845,14.7064,1.9766,3927.5583,26.1329,9.062899999999999
143,13.558,36.814,27.4994,96.318,15.4597,2.0414,4056.0639,27.3454,9.314599999999999
144,13.775,36.8379,27.0991,98.6901,15.6457,1.962,4093.3278,25.9803,9.738799999999998
145,13.995,37.0822,27.2972,99.811,15.7283,1.9643,4304.3662,28.9009,9.785
146,14.204,36.9807,27.5878,102.3223,15.8063,2.0106,4405.9331,27.9531,9.392899999999997
147,14.415,36.7421,27.3857,99.4461,15.7315,1.9388999999999998,4189.9443,27.8273,9.3564
148,14.629,36.9681,27.0396,96.0344,15.719700000000001,2.0289,4183.1284,26.9137,9.9285
149,14.846,36.967,27.5144,96.3441,15.7764,2.0572,4212.497,25.5241,9.4526
150,15.065,36.8983,27.3797,101.7939,15.767700000000001,1.9728999999999999,4409.8193,28.0046,9.5186
151,15.276,36.7176,27.3566,96.4572,15.671700000000001,2.0180000000000002,4255.3193,26.5726,9.360999999999997
152,15.493,36.7243,27.3896,98.9142,15.8567,2.0017,4329.2124,25.4191,9.334699999999998
153,15.71,36.8711,27.1852,92.434,15.711,1.9691999999999998,4074.2416,27.4607,9.6859
154,15.928,36.7489,27.3209,97.1261,15.8527,2.009,4239.4838,25.5688,9.427999999999997
155,16.146,36.8931,27.2972,101.375,15.6327,1.9964,4077.3798,26.2306,9.595899999999997
156,16.368,36.8623,27.511,102.7998,15.7583,1.9299,4053.6887,27.7131,9.351299999999998
157,16.588,36.7812,27.3224,95.5881,15.791400000000001,1.9444,4306.4257,26.0937,9.4588
158,16.805,36.7946,27.4227,91.7302,15.8047,2.0601,4116.3554,28.3286,9.371900000000004
159,17.022,36.6595,27.35,96.8535,15.770100000000001,2.0338,4314.8916,26.6971,9.3095
160,17.241,36.8992,27.3929,99.5764,15.894200000000001,1.9315,4083.8552,27.403,9.5063
161,17.461,36.7381,27.4359,98.8465,15.935400000000001,1.9976999999999998,4365.7529,25.7166,9.302200000000003
162,17.679,36.828,27.3797,94.7019,15.8008,1.9875999999999998,4187.7998,26.7539,9.448300000000003
163,17.898,36.8603,27.0528,95.0407,15.813500000000001,2.0247,4063.0219,29.696,9.807500000000001
164,18.114,36.7334,27.2608,102.5955,15.911800000000001,2.0314,4174.2036,26.6834,9.472600000000003
165,18.335,36.8634,27.4295,99.0064,15.892900000000001,1.9891999999999999,4129.1982,28.2912,9.433899999999998
166,18.553,36.9081,27.4952,92.0951,15.744900000000001,2.0227,4309.1064,25.8423,9.412899999999997
167,18.774,36.8676,27.1784,93.5028,15.8535,2.0093,4227.9326,26.8681,9.689200000000003
168,18.993,36.8172,27.4128,96.2986,15.8842,1.9747,4093.3278,29.1154,9.404399999999999
169,19.211,36.7193,27.3434,102.0845,15.9071,2.0136,4314.8916,26.35,9.375899999999998
170,19.431,37.0112,27.3277,101.1926,16.0243,1.9248999999999998,4201.6806,28.4324,9.683500000000002
171,19.65,36.8478,27.3752,95.1839,15.8039,2.0096,4058.4416,26.2968,9.4726
172,19.875,36.777,27.0854,101.3229,15.8779,2.0505,4197.957,27.4442,9.691600000000001
173,20.096,36.8122,27.4228,99.0551,15.9952,2.015,4163.5825,28.6399,9.389399999999998
174,20.315,36.9358,27.4194,92.6264,15.7598,1.9931999999999999,4367.2363,26.312,9.5164
175,20.534,36.9216,27.1453,93.1812,15.747200000000001,2.0069,4202.269,29.2695,9.776299999999999
176,20.751,36.9057,27.4397,99.8631,15.7401,1.9502,4310.5512,27.3927,9.466000000000005
177,20.969,36.962,27.4669,96.5787,15.799000000000001,1.9364,4073.8728,28.2978,9.495100000000004
178,21.19,36.9868,27.5052,93.2581,15.663,1.9731999999999998,4399.687,26.9934,9.481600000000004
179,21.408,36.7531,27.4126,97.3346,15.8535,1.9918,4224.7573,25.7112,9.340500000000002
180,21.634,36.7885,27.4392,91.7017,15.767700000000001,1.9656,4317.1679,26.7637,9.3493
181,21.854,36.8595,27.7418,96.8915,15.748800000000001,2.0093,4161.4648,27.9082,9.117699999999996
182,22.075,36.8319,27.3467,100.0502,15.726,1.9649999999999999,4124.8452,26.4359,9.485199999999999
183,22.302,36.7741,27.208,91.9158,15.7984,1.9749999999999999,4368.7197,26.6464,9.566099999999999
184,22.523,36.8891,27.3175,96.8915,15.8716,1.9646,4254.5146,28.8255,9.5716
185,22.742,36.8838,27.5008,100.7234,15.7599,2.0275,4077.7492,25.3485,9.383
186,22.972,36.9692,27.667,94.4229,15.7063,1.9688999999999999,4122.0117,26.4302,9.3022
187,23.199,36.9466,27.0596,100.3393,15.9008,1.9953999999999998,4357.7207,28.195,9.886999999999997
188,23.419,36.9864,27.5314,95.3275,15.818900000000001,2.0193,4168.5966,25.3485,9.455000000000002
189,23.647,36.7846,27.2939,100.4729,15.785,1.9851999999999999,4079.2277,25.7365,9.490699999999997
190,23.877,36.6523,27.2836,90.9091,15.764700000000001,2.0024,4126.9257,27.7173,9.368699999999997
191,24.101,36.7136,27.1717,97.4347,15.9047,1.9558,4314.2705,25.9212,9.541899999999998
192,24.327,36.9234,27.3481,99.7589,15.913400000000001,2.0011,4129.5766,25.7893,9.575300000000002
193,24.556,36.9081,27.5217,92.7912,15.844100000000001,1.9945,4142.6923,25.6407,9.386399999999998
194,24.785,37.131,26.8322,103.9296,16.1708,1.9858,4307.2504,25.8643,10.2988
195,25.012,37.7328,26.2503,100.984,17.0912,2.0143,4604.5224,25.3203,11.482499999999998
196,25.235,38.6411,25.7019,96.8915,18.2052,1.9881,4790.0366,28.0584,12.939200000000003
197,25.449,38.5421,26.0379,95.145,18.192600000000002,2.0341,4934.4809,27.8103,12.504199999999997
198,25.661,38.5883,25.8738,93.8156,18.158,1.9371999999999998,4665.1459,29.0736,12.714499999999997
199,25.875,38.8385,25.7664,99.42,18.394000000000002,1.9834999999999998,5030.1811,25.5527,13.072100000000002
200,26.09,38.85,26.2755,92.7468,18.5033,1.9408999999999998,4724.9057,27.3701,12.5745
201,26.307,38.9586,26.0158,99.0064,18.328,1.9844,4912.664,26.0974,12.942799999999998
202,26.524,38.7542,25.9861,100.1153,18.6524,1.9994999999999998,4686.0356,25.1389,12.768099999999997
203,26.747,38.8202,25.9795,101.6354,18.5886,1.9943,4788.2529,26.4474,12.840699999999998
204,26.966,38.7902,25.8682,101.2186,18.3957,1.9465,4721.4355,25.8661,12.921999999999997
205,27.187,38.846,25.996,99.5243,18.6177,1.9624,4869.8662,25.3979,12.849999999999998
206,27.407,38.747,25.9904,98.8465,18.553900000000002,2.0358,4885.1982,27.3742,12.756599999999999
207,27.623,38.8319,26.1743,96.5787,18.5176,1.9874999999999998,5036.0922,26.748,12.657599999999999
208,27.838,38.9157,26.2404,94.3109,18.5839,1.9547999999999999,4674.8393,25.0888,12.6753
209,28.062,39.1733,26.1601,95.2131,18.6642,2.0049,5001.6674,27.6166,13.013199999999998
210,28.277,39.0538,26.2484,98.4816,18.5075,2.0372,4690.4316,26.4302,12.805400000000002
211,28.499,38.7341,26.1024,94.8322,18.8138,1.992,4784.9433,28.4767,12.631699999999999
212,28.715,38.8899,25.9597,100.8692,18.5587,2.0171,4933.1289,26.7539,12.930199999999996
213,28.933,38.9209,26.0621,99.4982,18.674400000000002,2.0534,4800.0,25.0836,12.858800000000002
214,29.156,38.9715,26.2668,100.2087,18.3737,1.9595,4651.8842,25.3926,12.704699999999999
215,29.382,38.9249,26.0888,93.3456,18.794900000000002,1.9455,4657.1801,25.9065,12.836100000000002
216,29.606,38.7195,26.2314,99.6025,18.672,1.9863,4857.5131,27.7891,12.488099999999996
217,29.822,38.9204,26.2416,93.8938,18.5382,2.0022,5053.9082,27.3598,12.678800000000003
218,30.036,38.9256,26.2009,98.2209,18.6831,1.9490999999999998,4766.9492,25.1406,12.724700000000002
219,30.261,38.8941,26.0447,95.6142,18.587,1.9898,4702.1943,25.4245,12.849400000000003
220,30.487,38.8755,26.0956,101.1949,18.6492,1.9624,4693.1215,27.1017,12.779900000000001
221,30.71,38.9204,26.0711,97.3086,18.5351,1.9835999999999998,4887.0546,29.776,12.8493
222,30.924,38.9481,26.0626,100.7234,18.773600000000002,2.013,4982.8369,28.878,12.885499999999997
223,31.139,38.8509,26.1201,95.2419,18.6421,1.9925,4748.0878,26.6678,12.730800000000002
224,31.362,38.8785,26.1314,99.4982,18.7996,1.9682,4996.1142,25.8845,12.747100000000003
