,t (sec),PT1 (psi),PT2 (psi),DP (psi),w (RPM),q (GPM),Tm (mNm),Te (mNm),V (V),g (deg),I (A),P_f (W),P_t (W),P_e (W),eff_t (),eff_g ()
0,0.0,45.5903,12.389,33.2013,2830.6159,25.572,7.9333,81.74103519999997,10.403,0.0,1.5322,363.85659959941285,2.351599920760244,15.9394766,0.006462985482053185,6.778141323821341
1,1.485398,45.456,12.3416,33.1144,2894.4677,25.6898,7.9816,79.73188559999997,10.4728,0.0,1.4891,364.56164717730087,2.4192864009447588,15.59504648,0.0066361517172105694,6.446134890813241
2,1.6854,45.3772,12.3264,33.0508,2901.6345,26.0978,7.885,79.73188559999997,10.5317,0.0,1.4891,369.6295305124324,2.395923909313332,15.682754470000003,0.006481960210245555,6.545597883571626
3,1.885401,45.4963,12.3688,33.1275,2886.225,25.7099,8.0459,78.93941359999997,10.4433,0.0,1.4721,364.993389565164,2.4318312341657564,15.37358193,0.006662671992670678,6.321812843757611
4,2.085405,45.5044,12.3759,33.128499999999995,2878.1948,25.8026,8.062,78.98602959999997,10.4125,0.0,1.4731,366.32063910849934,2.429917873352685,15.33865375,0.00663330867533504,6.312416529879036
5,2.28541,45.7498,12.4738,33.275999999999996,2863.2512,25.7649,7.9816,81.10705759999996,10.254,0.0,1.5186,367.43851965605677,2.3931946763989673,15.571724399999999,0.006513183970584066,6.506668493609857
6,2.485413,45.8114,12.4587,33.3527,2857.0339,25.8723,8.0137,80.51969599999997,10.3812,0.0,1.506,369.8333730770551,2.397601994371031,15.6340872,0.006482924930280666,6.520718299661461
7,2.685415,45.4277,12.3537,33.074,2883.34,26.2272,8.1747,80.49638799999997,10.5904,0.0,1.5055,371.72693428198943,2.4682906494728827,15.943847200000002,0.006640064041204113,6.459469108066711
8,2.88542,45.4752,12.3648,33.1104,2899.0549,25.5866,7.9172,79.16317039999997,10.4484,0.0,1.4769,363.05262539433363,2.4035694380748254,15.43124196,0.006620443621538783,6.420135701325892
9,3.085442,45.4974,12.3486,33.1488,2888.7819,25.6389,8.1103,80.67819039999998,10.4287,0.0,1.5094,364.2229830785189,2.453467394901129,15.74107978,0.006736168525565594,6.415850405313555
10,3.287062,45.5923,12.3739,33.2184,2879.581,25.7093,8.0298,78.93941359999997,10.4721,0.0,1.4721,366.0014366369051,2.421378295282555,15.41597841,0.00661576172359319,6.36661294934135
11,3.516598,45.5388,12.3971,33.1417,2888.8576,26.0575,8.0781,78.75761119999996,10.5528,0.0,1.4682,370.0890848729666,2.4437905287490613,15.49362096,0.006603249403013046,6.339995501959386
12,3.745881,45.2893,12.3224,32.966899999999995,2900.5378,25.8558,7.885,77.24259119999996,10.6134,0.0,1.4357,365.25839693061073,2.3950183473787243,15.237658380000001,0.00655705212393437,6.362230333925066
13,3.9713,45.4519,12.3426,33.109300000000005,2911.5935,25.6238,8.1103,81.35878399999997,10.4954,0.0,1.524,363.56820177422225,2.472841483621889,15.9949896,0.006801589004633404,6.468263212962874
14,4.205251,45.5064,12.4042,33.102199999999996,2898.8054,25.6006,7.9172,82.01140799999997,10.4939,0.0,1.538,363.1599581677516,2.403362580807376,16.1396182,0.006617917330239392,6.715432090391506
15,4.429965,45.4792,12.3527,33.1265,2889.2119,25.8751,8.2069,79.32166479999997,10.5136,0.0,1.4803,367.32741386413215,2.483059658130839,15.56328208,0.006759799471567016,6.267784194808875
16,4.659394,45.4711,12.3426,33.1285,2888.1701,25.8427,8.1103,78.35205199999997,10.4309,0.0,1.4595,366.8899405598358,2.4529477878819206,15.22389855,0.006685786435406155,6.206368771976831
17,4.900918,45.6064,12.3941,33.2123,2878.4157,25.8339,8.1425,80.18406079999997,10.3933,0.0,1.4988,367.70671190069675,2.45436924076936,15.577478039999999,0.006674801305862998,6.346835586611654
18,5.13024,45.7266,12.4486,33.278,2868.6174,25.9657,8.0942,77.94649279999997,10.3505,0.0,1.4508,370.3247593431415,2.431505056379933,15.016505400000002,0.006565872237904865,6.175806774737633
19,5.360327,45.5317,12.3739,33.1578,2881.5676,25.9485,7.9977,81.89952959999997,10.4508,0.0,1.5356,368.722708125018,2.4133623834814015,16.048248479999998,0.00654519597058051,6.649746672876189
20,5.588992,45.563,12.3819,33.1811,2871.3078,25.8911,8.1908,78.85084319999996,10.4297,0.0,1.4702,368.1694805154181,2.4628314442598502,15.33374494,0.006689395983643224,6.226063491165235
21,5.818365,45.6095,12.4183,33.191199999999995,2888.6706,25.66,7.9011,78.69234879999998,10.4564,0.0,1.4668,364.99599109865306,2.390089683276112,15.337447520000001,0.006548262834563862,6.417101260809954
22,6.047759,45.4166,12.3446,33.072,2882.675,25.62,8.0942,80.22601519999996,10.5189,0.0,1.4997,363.098595306478,2.4434205964169435,15.775194330000001,0.00672935843873079,6.456192745994245
23,6.277205,45.455,12.3476,33.1074,2891.3991,25.7633,8.0459,79.75053199999996,10.531,0.0,1.4895,365.5262313205769,2.4361907480597518,15.6859245,0.006664886236093801,6.43870949452242
24,6.507116,45.4863,12.3809,33.1054,2890.229,25.8421,8.0137,79.77383999999996,10.5138,0.0,1.49,366.62175290870874,2.425459079988162,15.665562,0.006615698770585818,6.458802842419613
25,6.735791,45.5408,12.3648,33.175999999999995,2899.6713,25.8174,7.9172,78.73430319999997,10.5366,0.0,1.4677,367.06419728147625,2.404080487452203,15.46456782,0.006549482366455586,6.432633142157833
26,6.965189,45.7003,12.4304,33.2699,2897.5327,26.0213,8.1747,80.02556639999997,10.3517,0.0,1.4954,371.0260463954863,2.480440346942059,15.479932179999999,0.006685353686188633,6.240800025319697
27,7.194655,45.6953,12.4183,33.277,2869.166,25.9962,7.9655,77.65281199999995,10.3357,0.0,1.4445,370.7484444960213,2.3933010711548253,14.929918649999998,0.006455323297197297,6.238211660848818
28,7.424074,45.7387,12.4476,33.2911,2867.7199,25.9857,8.1264,80.90660879999997,10.3521,0.0,1.5143,370.75807754956617,2.440414198055545,15.67618503,0.006582227996716509,6.423575572741035
29,7.654024,45.6297,12.4163,33.2134,2877.2211,25.8245,7.885,80.56631199999997,10.4665,0.0,1.507,367.58527382771734,2.3757653921852686,15.7730155,0.006463168035667175,6.639130089142227
30,7.886812,45.6579,12.4234,33.2345,2896.9221,25.8569,7.9494,79.73188559999997,10.4103,0.0,1.4891,368.2837776635632,2.4115695129168397,15.50197773,0.006548128533426392,6.428169558027817
31,8.112154,45.3974,12.3416,33.0558,2889.9204,25.7829,7.9172,79.79714799999996,10.5574,0.0,1.4905,365.2256014661039,2.395996140641895,15.7358047,0.006560318145890613,6.567541755632514
32,8.345488,45.4347,12.3628,33.0719,2905.748,25.7458,8.0137,79.89037999999996,10.53,0.0,1.4925,364.88037168864537,2.4384825115094486,15.716024999999998,0.006682964337665772,6.445002137936843
33,8.574919,45.7276,12.4173,33.310300000000005,2896.3627,25.8054,8.0781,79.86707199999996,10.3505,0.0,1.492,368.40112063708483,2.450139367922482,15.442946000000001,0.0066507380967935105,6.302884726551028
34,8.800892,45.4095,12.3012,33.1083,2873.363,26.1269,8.0942,80.74811439999996,10.5128,0.0,1.5109,370.6951676487862,2.4355275343846876,15.883789519999999,0.006570162621305653,6.521703941241988
35,9.029687,45.7973,12.4617,33.3356,2889.4648,25.6762,7.9172,79.48015919999996,10.2988,0.0,1.4837,366.83921933270915,2.395618408493398,15.28032956,0.006530431541237862,6.378448882269937
36,9.259014,45.8569,12.4648,33.3921,2854.8193,25.6757,8.0137,76.22636239999996,10.3143,0.0,1.4139,367.46310833541185,2.395743518216187,14.58338877,0.006519684463207141,6.087207858067562
37,9.487739,45.6004,12.4193,33.1811,2874.7145,25.8224,7.9977,80.22601519999996,10.387,0.0,1.4997,367.1925717200633,2.4076227944638693,15.577383900000001,0.006556839598322183,6.470026756607769
38,9.717686,45.564,12.3951,33.1689,2877.2712,25.9646,7.9977,78.82753519999997,10.4462,0.0,1.4697,369.07685342405813,2.409764074649643,15.352780139999998,0.006529166086394741,6.3710718827245145
39,9.947607,45.456,12.3264,33.1296,2888.5036,25.9131,7.9333,79.52677519999996,10.5317,0.0,1.4847,367.90181161806834,2.399691472402059,15.63641499,0.006522641086892125,6.51601056628674
40,10.176507,45.4873,12.3718,33.1155,2902.1704,25.2555,8.062,77.89987679999996,10.4365,0.0,1.4498,358.41061936612266,2.4501592895919035,15.1308377,0.006836179390904217,6.175450618363747
41,10.405799,45.2479,12.287,32.9609,2911.3776,26.1095,7.9655,79.57339119999996,10.5749,0.0,1.4857,368.77420864858834,2.428511675035939,15.71112893,0.006585362040191135,6.46944755979709
42,10.647352,45.4842,12.3506,33.1336,2892.6813,25.5002,7.9655,81.92283759999997,10.4884,0.0,1.5361,362.0840242239213,2.4129162459751488,16.111231240000002,0.006663967710663049,6.677078521425785
43,10.872799,45.6125,12.4072,33.205299999999994,2896.7595,25.8938,7.9977,79.84376399999996,10.4835,0.0,1.4915,368.48045318209637,2.426085860797572,15.63614025,0.006584028650221629,6.4450069565384815
44,11.102689,45.7357,12.4244,33.3113,2864.3447,26.033,7.9011,83.88537119999997,10.3371,0.0,1.5782,371.66169086789535,2.3699624030571744,16.31401122,0.006376665826178899,6.883658238187854
45,11.335485,45.5802,12.3961,33.1841,2890.8974,25.9873,8.1586,81.65246479999996,10.4401,0.0,1.5303,369.57135001174964,2.469886162763957,15.97648503,0.00668311048106254,6.4685106831487795
46,11.560841,45.3923,12.3274,33.064899999999994,2905.3439,26.1652,7.9655,80.09082879999997,10.5434,0.0,1.4968,370.7446144283448,2.423478693091699,15.78136112,0.006536787316057139,6.511862953442054
47,11.790136,45.4135,12.3416,33.0719,2903.769,25.6608,7.9655,80.79006879999997,10.5698,0.0,1.5118,363.6757157217096,2.4221649978029074,15.979423640000002,0.006660232985301626,6.597165616089154
48,12.019602,45.4953,12.3658,33.1295,2903.4318,25.7611,7.9655,80.09082879999997,10.4901,0.0,1.4968,365.74266766233234,2.421883724038617,15.701581679999999,0.00662182440872497,6.483210372220841
49,12.249569,45.4247,12.3527,33.072,2895.194,25.8696,8.062,81.31216799999996,10.57,0.0,1.523,366.6360429797214,2.4442694592539227,16.09811,0.006666746235282478,6.586061916804258
50,12.478312,45.7135,12.4355,33.278000000000006,2881.3461,26.0235,8.2069,80.45443359999996,10.4375,0.0,1.5046,371.14910727483743,2.476299596447954,15.704262499999999,0.0066719804733741265,6.341826539295349
51,12.707705,45.8185,12.4587,33.3598,2901.507,25.7431,8.1425,81.17698159999996,10.3844,0.0,1.5201,368.0660208434116,2.474058744425617,15.785326439999999,0.006721779801233458,6.380336148269088
52,12.937081,45.6226,12.4193,33.2033,2887.1896,26.3033,7.9011,78.62242479999996,10.4554,0.0,1.4653,374.2849394459549,2.388864302015635,15.32029762,0.006382475088502931,6.413213846878326
53,13.166444,45.3641,12.3002,33.063900000000004,2920.6176,25.917,7.9172,80.72480639999996,10.6522,0.0,1.5104,367.216501078053,2.421446797597191,16.08908288,0.006594057702985697,6.644408993815286
54,13.408593,45.155,12.2638,32.8912,2929.9736,26.0358,8.0298,80.56631199999997,10.6517,0.0,1.507,366.94388210928435,2.4637523586906878,16.0521119,0.006714248360071924,6.5153106169041175
55,13.637294,45.6246,12.3819,33.2427,2868.343,25.5892,8.0298,82.82718799999998,10.349,0.0,1.5555,364.56216060677883,2.4119285005789557,16.0978695,0.006615959529547804,6.674273095631107
56,13.866703,45.4852,12.3426,33.1426,2894.4677,25.912,7.9333,81.47066239999997,10.5097,0.0,1.5264,368.03272392909986,2.4046462870370675,16.04200608,0.006533783902054084,6.671253966323037
57,14.096063,45.6286,12.4133,33.2153,2888.8376,25.6952,8.0137,77.42439359999996,10.3921,0.0,1.4396,365.76605760878584,2.4242914272644867,14.960467159999999,0.006627983589055296,6.171067963095937
58,14.325397,45.6398,12.4183,33.2215,2892.0122,25.6076,7.9011,79.57339119999996,10.4801,0.0,1.4857,364.5881514342338,2.392854527313932,15.57028457,0.006563171397372103,6.5069917089687115
59,14.555403,45.3075,12.3042,33.003299999999996,2909.4013,25.7824,7.9655,80.90660879999997,10.586,0.0,1.5143,364.62972434523675,2.426863153860474,16.0303798,0.006655692039968427,6.605390903273659
60,14.784228,45.6811,12.4335,33.2476,2901.6906,25.6421,7.9494,81.53592479999998,10.3568,0.0,1.5278,365.37046718192306,2.4155390947093034,15.82311904,0.006611205096405815,6.550553901055459
61,15.013585,45.7064,12.4153,33.2911,2869.4953,25.7644,7.885,78.59911679999998,10.3977,0.0,1.4648,367.6006193105455,2.369386081166402,15.230550960000002,0.0064455443127661525,6.428057918067242
62,15.242953,45.4438,12.3476,33.0962,2914.8852,25.8207,7.9816,82.39832079999996,10.6209,0.0,1.5463,366.2148187231438,2.4363519843994608,16.42309767,0.006652794643575928,6.740855908818179
63,15.480509,45.3499,12.3143,33.0356,2923.7485,25.5173,7.9977,82.21651839999997,10.6141,0.0,1.5424,361.2390497048968,2.4486896120917567,16.37118784,0.0067785850231090435,6.685693343557396
64,15.710467,45.4469,12.3385,33.1084,2897.7668,25.801,8.062,79.07459999999998,10.5482,0.0,1.475,366.0723370666817,2.4464415473643464,15.558595,0.006682945690372436,6.35968393226559
65,15.939225,45.5741,12.4062,33.1679,2901.8029,26.0413,7.9494,79.73188559999997,10.4799,0.0,1.4891,370.1557868231428,2.415632579879754,15.605619090000001,0.00652598896430038,6.460261887499804
66,16.168633,45.7327,12.4314,33.3013,2877.9187,25.9071,7.9333,79.23309439999996,10.4147,0.0,1.4784,369.7515781915686,2.3908978208150473,15.39709248,0.006466227493899488,6.439878921614138
67,16.397836,45.4196,12.3537,33.0659,2909.2319,25.8399,7.9655,80.22601519999996,10.5812,0.0,1.4997,366.1465558441743,2.4267218496621625,15.868625640000001,0.006627733651808358,6.539120106496409
68,16.62735,45.7539,12.4577,33.2962,2906.9204,25.8355,8.0459,80.54300399999997,10.3129,0.0,1.5065,368.6723729661311,2.4492684471770616,15.53638385,0.0066434824705513505,6.343275220773237
69,16.857361,45.4822,12.3567,33.1255,2865.2746,26.004,7.9655,80.51969599999997,10.61,0.0,1.506,369.1459891270504,2.390055078490654,15.97866,0.006474552477578346,6.685477729697635
70,17.086077,45.7296,12.4486,33.281,2908.104,25.8531,7.9655,78.69234879999998,10.3715,0.0,1.4668,368.75258736124465,2.425781017281549,15.2129162,0.006578343041984293,6.271347698585074
71,17.315518,45.7357,12.4173,33.318400000000004,2888.6149,25.9336,7.9977,80.24932319999996,10.413,0.0,1.5002,370.32269519412694,2.419264618336176,15.6215826,0.006532855398095364,6.4571616025797045
72,17.553097,45.463,12.3547,33.1083,2917.3798,25.6768,7.9011,79.45685119999997,10.6202,0.0,1.4832,364.30903324483023,2.413843711421485,15.751880640000001,0.0066258135021298945,6.525642304622903
73,17.786501,45.4095,12.3234,33.0861,2909.9655,25.565,7.9011,80.56631199999997,10.499,0.0,1.507,362.4759095997404,2.407709110287415,15.821992999999999,0.006642397595321847,6.571388932490804
74,18.015895,45.3126,12.3193,32.993300000000005,2915.4519,25.2969,8.1103,80.00225839999996,10.5751,0.0,1.4949,357.6534610103698,2.476118456035932,15.80871699,0.006923233593324963,6.384475246514859
75,18.245019,45.7044,12.4446,33.2598,2887.7253,25.8927,8.0137,83.66161439999996,10.2862,0.0,1.5734,369.07863924794293,2.423357993223561,16.184307079999996,0.006565966532665078,6.678463159490342
76,18.474606,45.7498,12.4436,33.306200000000004,2862.5954,26.0029,7.885,81.24224399999997,10.4503,0.0,1.5215,371.1742800654822,2.3636887283875216,15.900131450000002,0.006368137167183357,6.726829662062513
77,18.704,45.7811,12.4547,33.3264,2889.1157,25.8267,7.9977,79.61534559999997,10.3822,0.0,1.4866,368.88607597189304,2.419684046942205,15.434178519999998,0.006559434482765814,6.378592502398991
78,18.933178,45.6418,12.3749,33.26690000000001,2864.5087,26.0179,7.9011,79.25640239999997,10.3936,0.0,1.4789,370.94361460375995,2.370098096863196,15.37109504,0.006389375645123108,6.485425670922021
79,19.163489,45.4883,12.3648,33.1235,2879.134,25.4447,7.9333,77.65281199999995,10.4629,0.0,1.4445,361.1841760028987,2.391907459524312,15.113659049999997,0.006622403799620268,6.318663788525376
80,19.391982,45.5327,12.3567,33.176,2891.8449,25.9513,8.1264,80.04421279999997,10.4455,0.0,1.4958,368.96794808581717,2.4609444431914427,15.624378899999998,0.006669805482992953,6.348936053077953
81,19.633773,45.456,12.3254,33.1306,2894.6911,26.0771,7.9816,76.22636239999996,10.4709,0.0198,1.4139,370.2415485768653,2.4194731256340587,14.80480551,0.006534850383307954,6.119020440088659
82,19.867164,45.2792,12.3113,32.9679,2906.4697,25.8509,7.9494,78.85084319999996,10.538,0.2043,1.4702,365.20042078905846,2.419517500569502,15.4929676,0.006625177198158343,6.403329422644511
83,20.09638,45.4529,12.3698,33.0831,2906.1318,25.6416,8.1264,77.94649279999997,10.5199,0.3828,1.4508,363.5285287071451,2.4731025181855166,15.26227092,0.006803049342457034,6.171305397884488
84,20.326462,45.4711,12.3476,33.1235,2889.8393,25.7518,8.0781,79.61534559999997,10.5097,0.5673,1.4866,365.5434201854,2.444620984761179,15.62372002,0.006687635038051817,6.391060257353685
85,20.555284,45.5428,12.3981,33.1447,2903.488,26.1871,8.0137,80.58961999999997,10.5269,0.7442,1.5075,371.9639394006681,2.4365859360059945,15.86930175,0.006550597189426417,6.51292512014276
86,20.784665,45.6892,12.4234,33.2658,2882.3981,26.1922,8.0942,79.02798399999996,10.3189,0.931,1.474,373.4161199442931,2.4431858897076726,15.210058599999998,0.006542797054589265,6.225501982503625
87,21.014076,45.4438,12.3405,33.103300000000004,2889.1157,26.1449,8.0298,80.22601519999996,10.5877,1.1088,1.4997,370.8936921911576,2.4293958213156928,15.87837369,0.006550113610623469,6.535935211002675
88,21.243473,45.8215,12.4698,33.3517,2923.1789,26.15,7.9655,79.41489679999997,10.3013,1.2932,1.4823,373.79159980585615,2.4383556728844495,15.26961699,0.00652330248767203,6.262259915485105
89,21.473373,45.5378,12.3537,33.1841,2889.59,25.8806,8.2069,81.58254079999996,10.5967,1.4725,1.5288,368.0539448543745,2.4833846065559584,16.20023496,0.006747338647704328,6.523449858403944
90,21.702176,45.7205,12.4274,33.2931,2914.8286,25.8273,7.9655,78.96272159999997,10.5492,1.6558,1.4726,368.52053157884865,2.4313903101503085,15.53475192,0.006597706509684898,6.389246455062018
91,21.939735,45.6983,12.3567,33.3416,2969.2387,25.9098,7.9494,80.43112559999997,10.8635,1.8422,1.5041,370.2443163076574,2.471770133374602,16.33979035,0.006676051527339761,6.6105622563259905
92,22.169056,45.4842,12.2901,33.1941,3011.6853,26.0419,7.9816,79.50346719999996,11.1069,2.0207,1.4842,370.4611092469604,2.5172605278045554,16.48486098,0.006794938699291306,6.548730573540346
93,22.398318,45.9124,12.4092,33.5032,3015.5603,25.7972,8.0459,83.41454959999997,10.9973,2.2036,1.5681,370.44869717023727,2.5408045894032028,17.24486613,0.006858721892698661,6.787167420085053
94,22.62832,45.6084,12.2739,33.334500000000006,3035.0856,25.7295,7.9333,80.18406079999997,11.4551,2.3845,1.4988,367.58841205404406,2.521467874345141,17.16890388,0.006859486838160792,6.809090869126775
95,22.857031,45.7125,12.3284,33.3841,3097.8933,25.6238,8.0298,80.97187119999997,11.188,2.5638,1.5157,366.6311615804523,2.604952455833418,16.957651600000002,0.007105103790425616,6.5097739354228015
96,23.086502,45.6529,12.2779,33.375,3038.6516,25.7818,7.9977,81.28885999999997,11.1376,2.7467,1.5225,368.78980621349325,2.5449229329013745,16.956996,0.006900740991273802,6.6630685671365075
97,23.31577,45.7589,12.2941,33.4648,3005.5302,25.7862,8.1908,79.86707199999996,10.9639,2.9252,1.492,369.8600122553833,2.577959173597688,16.358138800000003,0.006970094328060646,6.34538318819506
98,23.54534,45.7993,12.2567,33.5426,3019.6276,25.4282,8.0298,80.47774159999997,11.1745,3.1112,1.5051,365.5856498904664,2.5391404966473083,16.81873995,0.006945405262509793,6.623792567684827
99,23.775203,45.974,12.3012,33.672799999999995,3077.1125,25.513,7.9172,79.93233439999997,11.3378,3.2862,1.4934,368.2497866459446,2.5511947229830043,16.93187052,0.006927891924173365,6.63683973922707
100,24.004001,45.8336,12.2295,33.604099999999995,3185.5925,25.6459,8.0137,82.41696719999996,11.9864,3.4076,1.5467,369.40163956737365,2.673325973224679,18.53936488,0.007236908792163338,6.934943611697692
101,24.233241,46.0629,12.2648,33.7981,3217.5722,25.5833,7.9655,80.04421279999997,12.1151,3.4076,1.4958,370.65888762186063,2.6839224334799687,18.12176658,0.007240949895198674,6.751971053240667
102,24.462765,46.076,12.2961,33.7799,3257.4704,25.8905,7.9172,81.24224399999997,12.2765,3.4072,1.5215,374.9047265241789,2.700727157279214,18.678694750000002,0.007203769294450426,6.9161724462449685
103,24.692188,46.483,12.4112,34.071799999999996,3229.0703,26.1157,7.9655,80.92525519999997,12.069,3.4072,1.5147,381.48172938927667,2.6935135185012764,18.2809143,0.0070606619164,6.78701412650487
