,t (sec),PT1 (psi),PT2 (psi),DP (psi),w (RPM),q (GPM),Tm (mNm),Te (mNm),V (V),g (deg),I (A),P_f (W),P_t (W),P_e (W),eff_t (),eff_g ()
0,0.0,0.3801,-0.7762,1.1562999999999999,0.0,0.0,385.7951,11.625909599999947,0.21380000000000002,0.0,0.1481,0.0,0.0,0.03166378,0.0,0.0
1,1.194583,0.3347,-0.8155,1.1502,0.0,0.0,384.7329,11.514031199999947,0.2114,0.0,0.1457,0.0,0.0,0.03080098,0.0,0.0
2,1.478019,0.3316,-0.8034,1.135,0.0,0.0,385.087,11.402152799999946,0.2131,0.0,0.14329999999999998,0.0,0.0,0.03053723,0.0,0.0
3,1.70343,0.3397,-0.8095,1.1492,0.0,0.0,384.8939,10.991931999999945,0.2121,0.0,0.1345,0.0,0.0,0.028527450000000003,0.0,0.0
4,1.929254,0.3246,-0.8044,1.129,0.0,0.0,385.3767,11.425460799999946,0.2119,0.0,0.14379999999999998,0.0,0.0,0.030471219999999997,0.0,0.0
5,2.153985,0.3347,-0.8095,1.1442,0.0,0.0,385.0226,10.973285599999945,0.2087,0.0,0.1341,0.0,0.0,0.027986669999999998,0.0,0.0
6,2.379358,0.3155,-0.8236,1.1391,0.0,0.0,385.2157,11.061855999999946,0.2092,0.0,0.136,0.0,0.0,0.028451200000000003,0.0,0.0
7,2.600952,0.3246,-0.8105,1.1351,0.0,0.0,385.3123,11.266966399999946,0.2078,0.0,0.1404,0.0,0.0,0.029175120000000002,0.0,0.0
8,2.826049,0.3195,-0.8176,1.1371,0.0,0.0,385.1031,11.173734399999946,0.2121,0.0,0.1384,0.0,0.0,0.02935464,0.0,0.0
9,3.051966,0.3336,-0.8065,1.1401,0.0,0.0,384.9904,11.537339199999947,0.2141,0.0,0.1462,0.0,0.0,0.03130142,0.0,0.0
10,3.276688,0.3266,-0.8034,1.13,0.0,0.0,385.1997,11.378844799999946,0.2119,0.0,0.14279999999999998,0.0,0.0,0.030259319999999996,0.0,0.0
11,3.501995,0.3377,-0.8044,1.1421000000000001,0.0,0.0,385.3123,11.266966399999946,0.2119,0.0,0.1404,0.0,0.0,0.02975076,0.0,0.0
12,3.727293,0.3236,-0.8004,1.124,0.0,0.0,385.4089,11.108471999999946,0.2102,0.0,0.137,0.0,0.0,0.0287974,0.0,0.0
13,3.952564,0.3296,-0.8034,1.133,0.0,0.0,385.2157,11.490723199999946,0.21330000000000002,0.0,0.1452,0.0,0.0,0.03097116,0.0,0.0
14,4.178589,0.3347,-0.8014,1.1360999999999999,0.0,0.0,385.3767,11.355536799999946,0.2109,0.0,0.14229999999999998,0.0,0.0,0.030011069999999997,0.0,0.0
15,4.403397,0.3316,-0.8004,1.1320000000000001,0.0,0.0,385.2801,11.150426399999946,0.2116,0.0,0.1379,0.0,0.0,0.02917964,0.0,0.0
16,4.628381,0.3276,-0.8095,1.1371,0.0,0.0,385.6503,11.490723199999946,0.20850000000000002,0.0,0.1452,0.0,0.0,0.0302742,0.0,0.0
17,4.853623,0.3266,-0.7984,1.125,0.0,0.0,385.2319,11.378844799999946,0.2104,0.0,0.14279999999999998,0.0,0.0,0.030045119999999998,0.0,0.0
18,5.079035,0.3347,-0.8075,1.1421999999999999,0.0,0.0,385.2801,11.308920799999946,0.21430000000000002,0.0,0.14129999999999998,0.0,0.0,0.03028059,0.0,0.0
19,5.304714,0.3306,-0.8085,1.1391,0.0,0.0,385.3123,11.402152799999946,0.2114,0.0,0.14329999999999998,0.0,0.0,0.030293619999999997,0.0,0.0
20,5.529795,0.3316,-0.8176,1.1492,0.0,0.0,385.2479,11.015239999999945,0.2107,0.0,0.135,0.0,0.0,0.0284445,0.0,0.0
21,5.755299,0.3437,-0.8085,1.1522000000000001,0.0,0.0,385.5054,11.467415199999946,0.2111,0.0,0.1447,0.0,0.0,0.03054617,0.0,0.0
22,5.980824,0.3347,-0.7953,1.13,0.0,0.0,385.3445,11.378844799999946,0.2126,0.0,0.14279999999999998,0.0,0.0,0.03035928,0.0,0.0
23,6.206062,0.3437,-0.7974,1.1411,0.0,0.0,385.0709,11.220350399999946,0.2114,0.0,0.1394,0.0,0.0,0.02946916,0.0,0.0
24,6.431918,0.3336,-0.7974,1.131,0.0,0.0,385.4893,11.490723199999946,0.2136,0.0,0.1452,0.0,0.0,0.031014720000000003,0.0,0.0
25,6.656551,0.3437,-0.8004,1.1441,0.0,0.0,385.1675,11.425460799999946,0.2121,0.0,0.14379999999999998,0.0,0.0,0.03049998,0.0,0.0
26,6.881896,0.3579,-0.8065,1.1644,0.0,0.0,385.6663,11.490723199999946,0.2104,0.0,0.1452,0.0,0.0,0.03055008,0.0,0.0
27,7.106924,0.3387,-0.8024,1.1411,0.0,0.0,385.3123,11.444107199999946,0.2126,0.0,0.1442,0.0,0.0,0.03065692,0.0,0.0
28,7.332649,0.3347,-0.7964,1.1311,0.0,0.0,385.2479,11.672525599999947,0.2131,0.0,0.1491,0.0,0.0,0.03177321,0.0,0.0
29,7.558761,0.3195,-0.8155,1.135,0.0,0.0,385.4411,11.425460799999946,0.2114,0.0,0.14379999999999998,0.0,0.0,0.030399319999999997,0.0,0.0
30,7.783268,0.3286,-0.8034,1.1320000000000001,0.0,0.0,385.0709,11.579293599999946,0.2119,0.0,0.1471,0.0,0.0,0.031170490000000002,0.0,0.0
31,8.008513,0.3286,-0.7994,1.1280000000000001,0.0,0.0,385.3284,11.784403999999945,0.2182,0.0,0.1515,0.0,0.0,0.0330573,0.0,0.0
32,8.234112,0.3256,-0.8186,1.1442,0.0,0.0,385.1353,11.784403999999945,0.2136,0.0,0.1515,0.0,0.0,0.0323604,0.0,0.0
33,8.459427,0.3306,-0.8024,1.133,0.0,0.0,385.1031,11.402152799999946,0.2111,0.0,0.14329999999999998,0.0,0.0,0.030250629999999997,0.0,0.0
34,8.685179,0.3437,-0.8135,1.1572,0.0,0.0,385.4089,11.761095999999945,0.2167,0.0,0.151,0.0,0.0,0.0327217,0.0,0.0
35,8.909912,0.3266,-0.8155,1.1421000000000001,0.0,0.0,385.1997,11.173734399999946,0.2141,0.0,0.1384,0.0,0.0,0.029631440000000002,0.0,0.0
36,9.131504,0.3185,-0.8115,1.13,0.0,0.0,385.3767,11.625909599999947,0.21330000000000002,0.0,0.1481,0.0,0.0,0.03158973,0.0,0.0
37,9.356676,0.3246,-0.8065,1.1311,0.0,0.0,385.4732,11.490723199999946,0.2102,0.0,0.1452,0.0,0.0,0.03052104,0.0,0.0
38,9.581909,0.3215,-0.8004,1.1219000000000001,0.0,0.0,385.1675,11.266966399999946,0.2087,0.0,0.1404,0.0,0.0,0.029301479999999998,0.0,0.0
39,9.807811,0.3266,-0.8095,1.1360999999999999,0.0,0.0,385.3123,11.467415199999946,0.2119,0.0,0.1447,0.0,0.0,0.03066193,0.0,0.0
40,10.032715,0.3236,-0.8024,1.126,0.0,0.0,385.2157,11.625909599999947,0.2136,0.0,0.1481,0.0,0.0,0.03163416,0.0,0.0
41,10.257997,0.3236,-0.8095,1.1331,0.0,0.0,385.1031,11.308920799999946,0.2114,0.0,0.14129999999999998,0.0,0.0,0.029870819999999996,0.0,0.0
42,10.483219,0.3326,-0.8145,1.1471,0.0,0.0,385.2962,11.514031199999947,0.21430000000000002,0.0,0.1457,0.0,0.0,0.031223510000000003,0.0,0.0
43,10.70867,0.3397,-0.8115,1.1512,0.0,0.0,385.3123,11.602601599999947,0.2141,0.0,0.1476,0.0,0.0,0.03160116,0.0,0.0
44,10.934503,0.3185,-0.8176,1.1360999999999999,0.0,0.0,385.7629,11.537339199999947,0.21500000000000002,0.0,0.1462,0.0,0.0,0.031433,0.0,0.0
45,11.159418,0.3397,-0.8004,1.1401,0.0,0.0,385.264,11.695833599999947,0.21580000000000002,0.0,0.1496,0.0,0.0,0.03228368,0.0,0.0
46,11.384543,0.3256,-0.8095,1.1351,0.0,0.0,385.3445,11.378844799999946,0.2136,0.0,0.14279999999999998,0.0,0.0,0.030502079999999997,0.0,0.0
47,11.60992,0.3336,-0.7923,1.1259000000000001,0.0,0.0,385.3445,11.537339199999947,0.2099,0.0,0.1462,0.0,0.0,0.03068738,0.0,0.0
48,11.83511,0.3397,-0.8054,1.1451,0.0,0.0,385.602,11.514031199999947,0.2102,0.0,0.1457,0.0,0.0,0.03062614,0.0,0.0
49,12.057164,0.3387,-0.7974,1.1360999999999999,0.0,0.0,385.602,10.949977599999945,0.2107,0.0,0.1336,0.0,0.0,0.02814952,0.0,0.0
50,12.281846,0.3417,-0.8125,1.1542,0.0,0.0,385.4732,11.378844799999946,0.2097,0.0,0.14279999999999998,0.0,0.0,0.029945159999999995,0.0,0.0
51,12.507326,0.3205,-0.7984,1.1189,0.0,0.0,385.3123,11.150426399999946,0.2116,0.0,0.1379,0.0,0.0,0.02917964,0.0,0.0
52,12.732452,0.3236,-0.8105,1.1341,0.0,0.0,385.4411,11.285612799999946,0.2097,0.0,0.14079999999999998,0.0,0.0,0.029525759999999995,0.0,0.0
53,12.957775,0.3286,-0.7984,1.127,0.0,0.0,385.425,11.490723199999946,0.2131,0.0,0.1452,0.0,0.0,0.03094212,0.0,0.0
54,13.183846,0.3336,-0.8044,1.138,0.0,0.0,385.3767,11.308920799999946,0.21330000000000002,0.0,0.14129999999999998,0.0,0.0,0.03013929,0.0,0.0
55,13.408392,0.3397,-0.8095,1.1492,0.0,0.0,385.602,11.378844799999946,0.2124,0.0,0.14279999999999998,0.0,0.0,0.03033072,0.0,0.0
56,13.629872,0.3417,-0.7984,1.1401,0.0,0.0,385.4732,11.266966399999946,0.2124,0.0,0.1404,0.0,0.0,0.02982096,0.0,0.0
57,13.859158,0.3326,-0.8014,1.134,0.0,0.0,385.4571,11.197042399999946,0.2109,0.0,0.1389,0.0,0.0,0.02929401,0.0,0.0
58,14.080288,0.3357,-0.7964,1.1320999999999999,0.0,0.0,385.4089,11.425460799999946,0.2121,0.0,0.14379999999999998,0.0,0.0,0.03049998,0.0,0.0
59,14.306417,0.3397,-0.8065,1.1461999999999999,0.0,0.0,385.4893,11.285612799999946,0.2124,0.0,0.14079999999999998,0.0,0.0,0.029905919999999996,0.0,0.0
60,14.531034,0.3397,-0.7953,1.135,0.0,0.0,385.5215,11.243658399999946,0.20850000000000002,0.0,0.1399,0.0,0.0,0.02916915,0.0,0.0
61,14.756511,0.3427,-0.7933,1.1360000000000001,0.0,0.0,385.425,11.514031199999947,0.20950000000000002,0.0,0.1457,0.0,0.0,0.030524150000000003,0.0,0.0
62,14.981839,0.3286,-0.8155,1.1441,0.0,0.0,384.9904,11.355536799999946,0.2109,0.0,0.14229999999999998,0.0,0.0,0.030011069999999997,0.0,0.0
63,15.207137,0.3205,-0.8135,1.134,0.0,0.0,385.4732,11.085163999999946,0.20950000000000002,0.0,0.1365,0.0,0.0,0.028596750000000004,0.0,0.0
64,15.43322,0.3397,-0.8054,1.1451,0.0,0.0,385.3445,11.695833599999947,0.21480000000000002,0.0,0.1496,0.0,0.0,0.03213408,0.0,0.0
65,15.657775,0.3326,-0.8054,1.138,0.0,0.0,385.6181,11.378844799999946,0.2068,0.0,0.14279999999999998,0.0,0.0,0.029531039999999998,0.0,0.0
66,15.883089,0.3296,-0.8165,1.1461000000000001,0.0,0.0,385.4732,11.308920799999946,0.21530000000000002,0.0,0.14129999999999998,0.0,0.0,0.03042189,0.0,0.0
67,16.10854,0.3296,-0.7348,1.0644,0.0,0.0,386.9056,10.814791199999945,0.20700000000000002,0.0,0.13069999999999998,0.0,0.0,0.0270549,0.0,0.0
68,16.333798,0.3256,-0.8004,1.126,0.0,0.0,385.425,11.243658399999946,0.2131,0.0,0.1399,0.0,0.0,0.02981269,0.0,0.0
69,16.55957,0.3367,-0.8155,1.1522000000000001,0.0,0.0,385.3445,11.308920799999946,0.2111,0.0,0.14129999999999998,0.0,0.0,0.029828429999999996,0.0,0.0
70,16.784388,0.3236,-0.8085,1.1320999999999999,0.0,0.0,385.6181,11.425460799999946,0.2131,0.0,0.14379999999999998,0.0,0.0,0.03064378,0.0,0.0
71,17.009741,-0.1137,-0.7549,0.6412,0.0,0.0,386.0526,11.490723199999946,0.2119,0.0,0.1452,0.0,0.0,0.03076788,0.0,0.0
72,17.235157,-0.4964,-0.6015,0.10510000000000003,0.0,0.0,388.5954,11.061855999999946,0.2104,0.0,0.136,-0.0,0.0,0.0286144,0.0,0.0
73,17.460426,-0.4833,-0.6277,0.14440000000000003,0.0,0.0,388.4827,11.127118399999945,0.21280000000000002,0.0,0.1374,-0.0,0.0,0.029238720000000003,0.0,0.0
74,17.686495,-0.4762,-0.6267,0.15050000000000002,0.0,0.0,388.6276,11.378844799999946,0.2131,0.0,0.14279999999999998,-0.0,0.0,0.030430679999999998,0.0,0.0
75,17.915275,-0.4742,-0.6146,0.14040000000000002,0.0,0.0,388.4184,11.355536799999946,0.2097,0.0,0.14229999999999998,-0.0,0.0,0.029840309999999995,0.0,0.0
76,18.140527,-0.4793,-0.5964,0.11710000000000004,0.0,0.0,388.4989,11.378844799999946,0.2124,0.0,0.14279999999999998,-0.0,0.0,0.03033072,0.0,0.0
77,18.365788,-0.4732,-0.6196,0.14640000000000003,0.0,0.0,388.3862,11.285612799999946,0.21450000000000002,0.0,0.14079999999999998,-0.0,0.0,0.0302016,0.0,0.0
78,18.591237,-0.4803,-0.6045,0.12420000000000003,0.0,0.0,388.4505,11.444107199999946,0.2107,0.0,0.1442,-0.0,0.0,0.030382939999999997,0.0,0.0
79,18.821372,-0.4742,-0.5994,0.12520000000000003,0.0,0.0,388.4666,11.425460799999946,0.2116,0.0,0.14379999999999998,-0.0,0.0,0.030428079999999996,0.0,0.0
80,19.045944,-0.4803,-0.6035,0.12320000000000003,0.0,0.0,388.6759,11.719141599999945,0.21280000000000002,0.0,0.15009999999999998,-0.0,0.0,0.03194128,0.0,0.0
81,19.271407,-0.4682,-0.6035,0.13530000000000003,0.0,0.0,388.3862,11.220350399999946,0.2114,0.0,0.1394,-0.0,0.0,0.02946916,0.0,0.0
82,19.496573,-0.4682,-0.6045,0.13630000000000003,0.0,0.0,388.5149,10.926669599999945,0.2109,0.0,0.1331,-0.0,0.0,0.028070789999999998,0.0,0.0
83,19.72211,-0.4712,-0.6015,0.13030000000000003,0.0,0.0,388.5954,11.378844799999946,0.2116,0.0,0.14279999999999998,-0.0,0.0,0.030216479999999997,0.0,0.0
84,19.947913,-0.4722,-0.5964,0.12420000000000003,0.0,0.0,388.4989,11.220350399999946,0.2121,0.0,0.1394,-0.0,0.0,0.02956674,0.0,0.0
85,20.176643,-0.4742,-0.5944,0.12020000000000003,0.0,0.0,388.692,11.308920799999946,0.2167,0.0,0.14129999999999998,-0.0,0.0,0.030619709999999998,0.0,0.0
86,20.402125,-0.4631,-0.6025,0.13940000000000002,0.0,0.0,388.4989,11.332228799999946,0.2116,0.0,0.14179999999999998,-0.0,0.0,0.030004879999999998,0.0,0.0
87,20.627336,-0.4651,-0.5984,0.13330000000000003,0.0,0.0,388.5954,11.625909599999947,0.21700000000000003,0.0,0.1481,-0.0,0.0,0.032137700000000005,0.0,0.0
88,20.852758,-0.4722,-0.5954,0.12320000000000003,0.0,0.0,388.8207,11.197042399999946,0.2099,0.0,0.1389,-0.0,0.0,0.029155109999999998,0.0,0.0
89,21.078814,-0.4591,-0.6004,0.14130000000000004,0.0,0.0,388.4023,11.402152799999946,0.21330000000000002,0.0,0.14329999999999998,-0.0,0.0,0.03056589,0.0,0.0
90,21.307604,-0.4661,-0.5934,0.12730000000000002,0.0,0.0,388.5632,11.220350399999946,0.20950000000000002,0.0,0.1394,-0.0,0.0,0.029204300000000002,0.0,0.0
91,21.528796,-0.4692,-0.5954,0.12620000000000003,0.0,0.0,388.6759,11.061855999999946,0.2116,0.0,0.136,-0.0,0.0,0.028777600000000004,0.0,0.0
92,21.758133,-0.4661,-0.5954,0.12930000000000003,0.0,0.0,388.5149,11.332228799999946,0.21380000000000002,0.0,0.14179999999999998,-0.0,0.0,0.030316839999999998,0.0,0.0
93,21.983461,-0.4631,-0.5984,0.13530000000000003,0.0,0.0,388.7402,11.150426399999946,0.2111,0.0,0.1379,-0.0,0.0,0.02911069,0.0,0.0
94,22.209369,-0.4601,-0.5994,0.13930000000000003,0.0,0.0,388.4184,11.579293599999946,0.21380000000000002,0.0,0.1471,-0.0,0.0,0.03144998,0.0,0.0
95,22.434327,-0.4601,-0.5833,0.12320000000000003,0.0,0.0,388.5632,11.579293599999946,0.2141,0.0,0.1471,-0.0,0.0,0.031494110000000006,0.0,0.0
96,22.663787,-0.4692,-0.6166,0.14740000000000003,0.0,0.0,388.354,11.332228799999946,0.2131,0.0,0.14179999999999998,-0.0,0.0,0.030217579999999997,0.0,0.0
97,22.889104,-0.4944,-0.6095,0.11510000000000004,0.0,0.0,388.354,11.490723199999946,0.2111,0.0,0.1452,-0.0,0.0,0.03065172,0.0,0.0
98,23.118278,-0.4904,-0.6176,0.12720000000000004,0.0,0.0,388.4666,11.602601599999947,0.2121,0.0,0.1476,-0.0,0.0,0.03130596,0.0,0.0
99,23.344491,-0.4863,-0.6025,0.11620000000000003,0.0,0.0,388.4827,11.737787999999947,0.21280000000000002,0.0,0.1505,-0.0,0.0,0.032026400000000003,0.0,0.0
100,23.569047,-0.4712,-0.6146,0.14340000000000003,0.0,0.0,388.4827,11.444107199999946,0.2121,0.0,0.1442,-0.0,0.0,0.030584820000000002,0.0,0.0
101,23.79839,-0.4833,-0.6105,0.12720000000000004,0.0,0.0,388.3862,11.108471999999946,0.20850000000000002,0.0,0.137,-0.0,0.0,0.028564500000000003,0.0,0.0
102,24.023757,-0.4783,-0.6146,0.13630000000000003,0.0,0.0,388.3701,11.425460799999946,0.2162,0.0,0.14379999999999998,-0.0,0.0,0.031089559999999995,0.0,0.0
103,24.249182,-0.4651,-0.6015,0.13640000000000002,0.0,0.0,388.3701,11.402152799999946,0.2116,0.0,0.14329999999999998,-0.0,0.0,0.030322279999999997,0.0,0.0
104,24.475084,-0.4762,-0.6095,0.13330000000000003,0.0,0.0,388.4345,11.444107199999946,0.2124,0.0,0.1442,-0.0,0.0,0.03062808,0.0,0.0
105,24.699826,-0.4823,-0.6196,0.13730000000000003,0.0,0.0,388.177,11.243658399999946,0.21450000000000002,0.0,0.1399,-0.0,0.0,0.030008550000000002,0.0,0.0
106,24.929179,-0.4762,-0.6176,0.14140000000000003,0.0,0.0,388.5149,11.402152799999946,0.21500000000000002,0.0,0.14329999999999998,-0.0,0.0,0.0308095,0.0,0.0
107,25.154653,-0.4924,-0.6095,0.11710000000000004,0.0,0.0,388.3862,11.220350399999946,0.2111,0.0,0.1394,-0.0,0.0,0.02942734,0.0,0.0
108,25.383964,-0.4682,-0.6146,0.14640000000000003,0.0,0.0,388.4989,11.285612799999946,0.21380000000000002,0.0,0.14079999999999998,-0.0,0.0,0.030103039999999998,0.0,0.0
109,25.610103,-0.4661,-0.6126,0.14650000000000002,0.0,0.0,388.3057,11.560647199999947,0.21330000000000002,0.0,0.1467,-0.0,0.0,0.031291110000000004,0.0,0.0
110,25.834809,-0.4772,-0.6116,0.13440000000000002,0.0,0.0,388.692,11.355536799999946,0.2116,0.0,0.14229999999999998,-0.0,0.0,0.030110679999999997,0.0,0.0
111,26.0601,-0.4601,-0.6035,0.14340000000000003,0.0,0.0,388.4023,11.467415199999946,0.2104,0.0,0.1447,-0.0,0.0,0.03044488,0.0,0.0
112,26.285468,-0.4671,-0.6025,0.13540000000000002,0.0,0.0,388.531,11.579293599999946,0.21600000000000003,0.0,0.1471,-0.0,0.0,0.031773600000000006,0.0,0.0
113,26.514896,-0.4813,-0.6116,0.13030000000000003,0.0,0.0,388.2896,11.220350399999946,0.2107,0.0,0.1394,-0.0,0.0,0.029371579999999998,0.0,0.0
114,26.740648,-0.4692,-0.6095,0.14030000000000004,0.0,0.0,388.6437,11.579293599999946,0.2111,0.0,0.1471,-0.0,0.0,0.031052810000000004,0.0,0.0
115,26.965516,-0.4712,-0.6045,0.13330000000000003,0.0,0.0,388.5471,11.015239999999945,0.20850000000000002,0.0,0.135,-0.0,0.0,0.028147500000000006,0.0,0.0
116,27.190769,-0.4803,-0.6136,0.13330000000000003,0.0,0.0,388.354,11.378844799999946,0.2111,0.0,0.14279999999999998,-0.0,0.0,0.030145079999999998,0.0,0.0
117,27.420347,-0.4682,-0.6045,0.13630000000000003,0.0,0.0,388.531,11.467415199999946,0.2109,0.0,0.1447,-0.0,0.0,0.03051723,0.0,0.0
118,27.645613,-0.4742,-0.6004,0.12620000000000003,0.0,0.0,388.3701,11.150426399999946,0.2107,0.0,0.1379,-0.0,0.0,0.02905553,0.0,0.0
119,27.871649,-0.4651,-0.5934,0.12830000000000003,0.0,0.0,388.6437,11.467415199999946,0.2114,0.0,0.1447,-0.0,0.0,0.030589579999999998,0.0,0.0
120,28.096407,-0.4671,-0.6206,0.15350000000000003,0.0,0.0,388.3862,11.467415199999946,0.2097,0.0,0.1447,-0.0,0.0,0.03034359,0.0,0.0
121,28.321832,-0.4783,-0.5974,0.11910000000000004,0.0,0.0,388.5793,11.490723199999946,0.2141,0.0,0.1452,-0.0,0.0,0.03108732,0.0,0.0
122,28.546985,-0.449,-0.6025,0.15350000000000003,0.0,0.0,388.3862,11.378844799999946,0.2109,0.0,0.14279999999999998,-0.0,0.0,0.030116519999999997,0.0,0.0
123,28.776052,-0.4651,-0.5974,0.13230000000000003,0.0,0.0,388.5793,11.695833599999947,0.21650000000000003,0.0,0.1496,-0.0,0.0,0.032388400000000005,0.0,0.0
124,29.002389,-0.4702,-0.5954,0.12520000000000003,0.0,0.0,388.7724,10.973285599999945,0.2114,0.0,0.1341,-0.0,0.0,0.02834874,0.0,0.0
125,29.227041,-0.4671,-0.6004,0.13330000000000003,0.0,0.0,388.4505,11.490723199999946,0.21450000000000002,0.0,0.1452,-0.0,0.0,0.031145400000000004,0.0,0.0
126,29.456181,-0.457,-0.5984,0.14140000000000003,0.0,0.0,388.5149,11.332228799999946,0.2102,0.0,0.14179999999999998,-0.0,0.0,0.029806359999999997,0.0,0.0
127,29.681662,-0.4671,-0.5994,0.13230000000000003,0.0,0.0,388.4827,11.402152799999946,0.2102,0.0,0.14329999999999998,-0.0,0.0,0.030121659999999995,0.0,0.0
128,29.907049,-0.4702,-0.5742,0.10400000000000004,0.0,0.0,388.4827,11.150426399999946,0.21330000000000002,0.0,0.1379,-0.0,0.0,0.02941407,0.0,0.0
129,30.137028,-0.4702,-0.5964,0.12620000000000003,0.0,0.0,388.7242,11.266966399999946,0.2116,0.0,0.1404,-0.0,0.0,0.02970864,0.0,0.0
130,30.361378,-0.4641,-0.6025,0.13840000000000002,0.0,0.0,388.4505,11.625909599999947,0.2121,0.0,0.1481,-0.0,0.0,0.031412010000000004,0.0,0.0
131,30.586647,-0.4732,-0.6166,0.14340000000000003,0.0,0.0,388.2413,11.108471999999946,0.2136,0.0,0.137,-0.0,0.0,0.029263200000000003,0.0,0.0
132,30.811812,-0.4793,-0.6015,0.12220000000000003,0.0,0.0,388.2092,11.266966399999946,0.2136,0.0,0.1404,-0.0,0.0,0.029989440000000003,0.0,0.0
133,31.040938,-0.4692,-0.6105,0.14130000000000004,0.0,0.0,388.3218,11.514031199999947,0.20820000000000002,0.0,0.1457,-0.0,0.0,0.030334740000000002,0.0,0.0
134,31.26678,-0.4762,-0.6004,0.12420000000000003,0.0,0.0,388.5149,11.015239999999945,0.2073,0.0,0.135,-0.0,0.0,0.027985500000000003,0.0,0.0
135,31.491202,-0.4772,-0.6247,0.14750000000000002,0.0,0.0,388.5632,11.061855999999946,0.2111,0.0,0.136,-0.0,0.0,0.028709600000000002,0.0,0.0
136,31.716419,-0.4803,-0.6186,0.13830000000000003,0.0,0.0,388.2574,11.285612799999946,0.2121,0.0,0.14079999999999998,-0.0,0.0,0.029863679999999997,0.0,0.0
137,31.941572,-0.4762,-0.6004,0.12420000000000003,0.0,0.0,388.3379,11.444107199999946,0.21380000000000002,0.0,0.1442,-0.0,0.0,0.03082996,0.0,0.0
138,32.166784,-0.4742,-0.6105,0.13630000000000003,0.0,0.0,388.3701,11.150426399999946,0.2099,0.0,0.1379,-0.0,0.0,0.02894521,0.0,0.0
139,32.396555,-0.4783,-0.6126,0.13430000000000003,0.0,0.0,388.6276,11.467415199999946,0.2104,0.0,0.1447,-0.0,0.0,0.03044488,0.0,0.0
140,32.621129,-0.4793,-0.6095,0.13020000000000004,0.0,0.0,388.5471,11.332228799999946,0.2097,0.0,0.14179999999999998,-0.0,0.0,0.029735459999999995,0.0,0.0
141,32.846313,-0.4732,-0.5994,0.12620000000000003,0.0,0.0,388.2413,11.355536799999946,0.2131,0.0,0.14229999999999998,-0.0,0.0,0.030324129999999998,0.0,0.0
142,33.071624,-0.4641,-0.6136,0.14950000000000002,0.0,0.0,388.193,11.444107199999946,0.2104,0.0,0.1442,-0.0,0.0,0.03033968,0.0,0.0
143,33.300805,-0.4661,-0.6237,0.15760000000000002,0.0,0.0,388.531,11.560647199999947,0.21330000000000002,0.0,0.1467,-0.0,0.0,0.031291110000000004,0.0,0.0
